,x,y,z,muscle1,muscle2,muscle3
0,503.0,615.0,469.0,61.0,73.0,79.0
1,505.0,616.0,469.0,60.0,72.0,79.0
2,505.0,616.0,469.0,60.0,71.0,78.0
3,505.0,616.0,470.0,59.0,70.0,77.0
4,505.0,616.0,469.0,59.0,69.0,76.0
5,505.0,617.0,470.0,58.0,69.0,75.0
6,505.0,616.0,469.0,58.0,68.0,75.0
7,505.0,617.0,470.0,57.0,67.0,74.0
8,505.0,616.0,470.0,56.0,67.0,73.0
9,505.0,616.0,470.0,56.0,66.0,73.0
10,506.0,616.0,470.0,55.0,66.0,72.0
11,505.0,616.0,470.0,55.0,65.0,71.0
12,505.0,617.0,470.0,54.0,65.0,71.0
13,505.0,616.0,470.0,54.0,64.0,69.0
14,505.0,616.0,470.0,53.0,63.0,69.0
15,506.0,617.0,470.0,53.0,62.0,69.0
16,505.0,616.0,470.0,52.0,62.0,67.0
17,505.0,616.0,470.0,52.0,61.0,67.0
18,505.0,616.0,469.0,52.0,61.0,66.0
19,506.0,617.0,469.0,51.0,60.0,66.0
20,505.0,616.0,470.0,51.0,60.0,65.0
21,506.0,616.0,469.0,50.0,59.0,64.0
22,506.0,616.0,470.0,50.0,59.0,64.0
23,505.0,616.0,470.0,49.0,58.0,63.0
24,505.0,617.0,470.0,49.0,57.0,63.0
25,505.0,617.0,470.0,48.0,57.0,62.0
26,505.0,616.0,470.0,48.0,57.0,61.0
27,505.0,616.0,470.0,47.0,56.0,61.0
28,505.0,616.0,470.0,47.0,55.0,61.0
29,505.0,616.0,469.0,47.0,55.0,60.0
30,506.0,616.0,470.0,46.0,55.0,59.0
31,506.0,616.0,470.0,46.0,54.0,59.0
32,505.0,617.0,470.0,45.0,54.0,58.0
33,505.0,617.0,469.0,45.0,53.0,57.0
34,505.0,617.0,470.0,45.0,53.0,57.0
35,506.0,617.0,470.0,44.0,52.0,56.0
36,506.0,616.0,470.0,44.0,52.0,56.0
37,506.0,617.0,470.0,43.0,51.0,55.0
38,506.0,616.0,470.0,43.0,51.0,55.0
39,506.0,616.0,470.0,43.0,51.0,54.0
40,505.0,617.0,470.0,42.0,50.0,54.0
41,505.0,617.0,470.0,42.0,49.0,53.0
42,506.0,617.0,470.0,41.0,48.0,52.0
43,506.0,616.0,470.0,41.0,48.0,52.0
44,505.0,617.0,470.0,41.0,48.0,52.0
45,506.0,616.0,469.0,40.0,47.0,51.0
46,505.0,617.0,470.0,39.0,47.0,50.0
47,505.0,617.0,470.0,39.0,46.0,50.0
48,505.0,617.0,469.0,39.0,46.0,50.0
49,506.0,616.0,470.0,40.0,46.0,49.0
50,505.0,617.0,469.0,38.0,45.0,49.0
51,505.0,617.0,470.0,38.0,45.0,48.0
52,506.0,616.0,469.0,37.0,44.0,48.0
53,505.0,617.0,470.0,37.0,44.0,47.0
54,506.0,616.0,470.0,37.0,44.0,47.0
55,505.0,616.0,470.0,37.0,43.0,47.0
56,505.0,616.0,470.0,36.0,43.0,46.0
57,505.0,616.0,470.0,36.0,43.0,46.0
58,505.0,616.0,470.0,36.0,42.0,45.0
59,505.0,616.0,469.0,35.0,41.0,45.0
60,505.0,616.0,470.0,35.0,41.0,45.0
61,505.0,617.0,470.0,34.0,41.0,44.0
62,506.0,617.0,470.0,35.0,40.0,43.0
63,505.0,617.0,470.0,34.0,40.0,43.0
64,506.0,616.0,470.0,34.0,40.0,43.0
65,505.0,616.0,470.0,34.0,39.0,42.0
66,506.0,616.0,470.0,33.0,39.0,42.0
67,505.0,616.0,470.0,33.0,39.0,42.0
68,506.0,617.0,470.0,33.0,38.0,41.0
69,505.0,616.0,470.0,33.0,38.0,41.0
70,505.0,616.0,470.0,32.0,38.0,40.0
71,506.0,617.0,470.0,32.0,38.0,40.0
72,505.0,616.0,469.0,32.0,37.0,40.0
73,506.0,616.0,469.0,31.0,37.0,40.0
74,505.0,616.0,469.0,31.0,36.0,39.0
75,505.0,617.0,470.0,30.0,36.0,38.0
76,505.0,616.0,470.0,30.0,36.0,38.0
77,505.0,616.0,470.0,30.0,36.0,38.0
78,505.0,617.0,470.0,29.0,34.0,38.0
79,505.0,617.0,470.0,30.0,34.0,38.0
80,506.0,617.0,470.0,29.0,35.0,36.0
81,505.0,617.0,470.0,29.0,34.0,36.0
82,505.0,616.0,470.0,29.0,34.0,36.0
83,505.0,616.0,470.0,29.0,34.0,36.0
84,505.0,616.0,470.0,28.0,33.0,36.0
85,505.0,616.0,470.0,28.0,33.0,36.0
86,505.0,617.0,470.0,28.0,33.0,35.0
87,505.0,616.0,470.0,28.0,33.0,35.0
88,505.0,616.0,469.0,27.0,32.0,34.0
89,505.0,616.0,470.0,27.0,32.0,34.0
90,506.0,617.0,470.0,27.0,32.0,34.0
91,505.0,617.0,470.0,26.0,31.0,34.0
92,506.0,617.0,470.0,26.0,31.0,33.0
93,506.0,616.0,470.0,26.0,31.0,33.0
94,506.0,617.0,470.0,26.0,30.0,33.0
95,505.0,616.0,470.0,26.0,30.0,32.0
96,505.0,617.0,470.0,26.0,30.0,32.0
97,505.0,617.0,470.0,25.0,30.0,32.0
98,505.0,616.0,470.0,24.0,30.0,31.0
99,505.0,617.0,469.0,24.0,29.0,31.0
100,505.0,616.0,470.0,24.0,29.0,31.0
101,505.0,616.0,469.0,24.0,28.0,31.0
102,505.0,616.0,470.0,23.0,60.0,469.0
103,505.0,617.0,469.0,5.0,6.0,6.0
104,505.0,618.0,469.0,4.0,6.0,6.0
105,505.0,617.0,469.0,5.0,6.0,6.0
106,505.0,617.0,470.0,5.0,5.0,5.0
107,505.0,616.0,470.0,5.0,6.0,5.0
108,505.0,617.0,470.0,5.0,6.0,6.0
109,506.0,617.0,469.0,3.0,5.0,6.0
110,506.0,617.0,469.0,4.0,5.0,5.0
111,505.0,616.0,470.0,5.0,5.0,5.0
112,505.0,617.0,470.0,5.0,5.0,5.0
113,506.0,616.0,470.0,5.0,6.0,5.0
114,505.0,616.0,470.0,4.0,6.0,5.0
115,505.0,617.0,470.0,5.0,6.0,5.0
116,506.0,617.0,470.0,5.0,6.0,6.0
117,505.0,617.0,469.0,5.0,6.0,6.0
118,505.0,616.0,469.0,5.0,6.0,5.0
119,505.0,616.0,470.0,4.0,6.0,5.0
120,505.0,616.0,470.0,4.0,5.0,5.0
121,505.0,616.0,470.0,5.0,6.0,6.0
122,505.0,617.0,470.0,4.0,5.0,6.0
123,505.0,617.0,470.0,5.0,5.0,5.0
124,505.0,617.0,470.0,5.0,5.0,6.0
125,506.0,616.0,470.0,4.0,5.0,5.0
126,506.0,617.0,469.0,4.0,6.0,5.0
127,505.0,616.0,470.0,4.0,5.0,5.0
128,505.0,616.0,470.0,5.0,5.0,5.0
129,505.0,616.0,470.0,4.0,5.0,5.0
130,505.0,616.0,470.0,5.0,5.0,6.0
131,505.0,616.0,470.0,4.0,6.0,5.0
132,505.0,617.0,470.0,5.0,6.0,6.0
133,506.0,617.0,470.0,4.0,5.0,6.0
134,505.0,617.0,470.0,4.0,5.0,5.0
135,505.0,617.0,470.0,5.0,5.0,5.0
136,505.0,616.0,470.0,5.0,6.0,6.0
137,505.0,617.0,470.0,5.0,6.0,6.0
138,505.0,617.0,470.0,4.0,6.0,6.0
139,505.0,617.0,470.0,4.0,6.0,5.0
140,506.0,617.0,470.0,4.0,6.0,5.0
141,505.0,617.0,469.0,4.0,6.0,5.0
142,505.0,617.0,470.0,5.0,6.0,5.0
143,506.0,617.0,470.0,5.0,6.0,6.0
144,505.0,617.0,470.0,4.0,6.0,5.0
145,505.0,617.0,470.0,4.0,6.0,6.0
146,505.0,616.0,470.0,4.0,6.0,5.0
147,506.0,617.0,470.0,5.0,6.0,5.0
148,506.0,616.0,470.0,5.0,6.0,5.0
149,506.0,616.0,470.0,5.0,5.0,6.0
150,505.0,617.0,470.0,4.0,6.0,6.0
151,505.0,616.0,470.0,4.0,6.0,5.0
152,505.0,616.0,470.0,5.0,6.0,6.0
153,505.0,617.0,470.0,4.0,6.0,6.0
154,505.0,617.0,470.0,5.0,5.0,6.0
155,506.0,617.0,469.0,5.0,6.0,5.0
156,505.0,617.0,470.0,5.0,6.0,5.0
157,505.0,617.0,470.0,4.0,6.0,5.0
158,505.0,616.0,470.0,4.0,6.0,5.0
159,505.0,616.0,470.0,4.0,7.0,5.0
160,505.0,616.0,470.0,4.0,6.0,5.0
161,505.0,617.0,470.0,4.0,6.0,6.0
162,505.0,616.0,469.0,5.0,6.0,5.0
163,506.0,617.0,470.0,4.0,6.0,5.0
164,505.0,616.0,470.0,4.0,6.0,6.0
165,505.0,616.0,470.0,4.0,6.0,6.0
166,505.0,616.0,470.0,5.0,6.0,6.0
167,505.0,616.0,470.0,4.0,6.0,5.0
168,505.0,616.0,470.0,4.0,6.0,6.0
169,506.0,617.0,470.0,4.0,6.0,5.0
170,506.0,616.0,470.0,5.0,6.0,5.0
171,506.0,617.0,470.0,5.0,6.0,5.0
172,505.0,617.0,470.0,4.0,6.0,5.0
173,506.0,617.0,470.0,4.0,6.0,5.0
174,505.0,617.0,470.0,5.0,6.0,5.0
175,505.0,616.0,470.0,4.0,6.0,5.0
176,506.0,616.0,470.0,4.0,6.0,5.0
177,506.0,616.0,470.0,4.0,6.0,5.0
178,505.0,616.0,470.0,4.0,6.0,5.0
179,505.0,617.0,470.0,4.0,6.0,5.0
180,505.0,616.0,469.0,4.0,6.0,5.0
181,505.0,617.0,470.0,5.0,6.0,5.0
182,505.0,617.0,470.0,4.0,6.0,5.0
183,505.0,616.0,470.0,4.0,6.0,5.0
184,506.0,616.0,470.0,4.0,6.0,6.0
185,506.0,616.0,470.0,4.0,6.0,5.0
186,505.0,617.0,470.0,5.0,6.0,5.0
187,505.0,617.0,470.0,4.0,6.0,5.0
188,505.0,616.0,470.0,4.0,6.0,5.0
189,505.0,617.0,470.0,4.0,6.0,5.0
190,505.0,617.0,470.0,4.0,6.0,5.0
191,505.0,617.0,470.0,4.0,6.0,5.0
192,505.0,617.0,469.0,4.0,6.0,5.0
193,505.0,617.0,470.0,5.0,6.0,5.0
194,505.0,617.0,470.0,4.0,6.0,5.0
195,505.0,617.0,470.0,4.0,6.0,5.0
196,505.0,617.0,469.0,4.0,6.0,6.0
197,505.0,616.0,470.0,4.0,4.0,5.0
198,506.0,616.0,470.0,4.0,6.0,5.0
199,506.0,617.0,470.0,4.0,6.0,5.0
200,506.0,617.0,470.0,4.0,6.0,5.0
201,505.0,617.0,469.0,4.0,6.0,5.0
202,505.0,616.0,470.0,4.0,6.0,5.0
203,505.0,617.0,469.0,5.0,6.0,5.0
204,505.0,616.0,470.0,4.0,6.0,5.0
205,505.0,616.0,470.0,4.0,6.0,5.0
206,505.0,617.0,470.0,4.0,6.0,5.0
207,505.0,617.0,470.0,4.0,6.0,5.0
208,505.0,616.0,470.0,4.0,6.0,6.0
209,505.0,617.0,470.0,4.0,6.0,6.0
210,505.0,617.0,469.0,4.0,6.0,5.0
211,505.0,616.0,470.0,6.0,6.0,4.0
212,505.0,616.0,470.0,4.0,6.0,5.0
213,505.0,616.0,470.0,4.0,6.0,5.0
214,505.0,616.0,469.0,4.0,6.0,6.0
215,505.0,616.0,470.0,4.0,5.0,5.0
216,505.0,616.0,470.0,4.0,6.0,5.0
217,505.0,616.0,470.0,4.0,6.0,6.0
218,505.0,616.0,470.0,4.0,6.0,5.0
219,505.0,616.0,470.0,4.0,6.0,5.0
220,505.0,617.0,470.0,6.0,6.0,5.0
221,506.0,617.0,470.0,4.0,6.0,5.0
222,506.0,616.0,470.0,4.0,6.0,6.0
223,506.0,616.0,470.0,4.0,6.0,5.0
224,505.0,616.0,470.0,4.0,6.0,6.0
225,505.0,617.0,470.0,4.0,6.0,5.0
226,505.0,617.0,470.0,4.0,6.0,5.0
227,505.0,616.0,470.0,4.0,6.0,5.0
228,505.0,617.0,470.0,5.0,6.0,5.0
229,505.0,617.0,469.0,4.0,6.0,5.0
230,505.0,617.0,469.0,4.0,6.0,5.0
231,505.0,616.0,470.0,4.0,6.0,5.0
232,505.0,616.0,470.0,5.0,6.0,5.0
233,505.0,617.0,470.0,4.0,6.0,5.0
234,505.0,617.0,470.0,4.0,6.0,5.0
235,505.0,617.0,470.0,4.0,6.0,5.0
236,505.0,617.0,470.0,4.0,6.0,4.0
237,505.0,616.0,470.0,4.0,6.0,5.0
238,505.0,617.0,470.0,5.0,6.0,5.0
239,505.0,617.0,469.0,4.0,6.0,5.0
240,505.0,617.0,470.0,4.0,6.0,5.0
241,505.0,617.0,470.0,4.0,6.0,4.0
242,505.0,617.0,470.0,4.0,4.0,5.0
243,505.0,616.0,470.0,4.0,6.0,5.0
244,506.0,616.0,470.0,4.0,6.0,5.0
245,506.0,616.0,470.0,4.0,6.0,5.0
246,505.0,616.0,470.0,4.0,6.0,5.0
247,505.0,616.0,470.0,4.0,6.0,5.0
248,505.0,617.0,470.0,4.0,6.0,6.0
249,505.0,617.0,470.0,4.0,6.0,5.0
250,505.0,616.0,470.0,4.0,6.0,7.0
251,505.0,616.0,470.0,5.0,6.0,6.0
252,505.0,617.0,469.0,4.0,6.0,5.0
253,505.0,617.0,470.0,4.0,6.0,6.0
254,505.0,616.0,470.0,4.0,6.0,6.0
255,505.0,616.0,470.0,4.0,6.0,6.0
256,505.0,616.0,470.0,5.0,6.0,6.0
257,505.0,617.0,470.0,5.0,6.0,6.0
258,505.0,617.0,469.0,5.0,6.0,5.0
259,506.0,617.0,470.0,4.0,6.0,6.0
260,505.0,616.0,469.0,4.0,6.0,5.0
261,506.0,617.0,470.0,5.0,6.0,6.0
262,506.0,617.0,470.0,5.0,6.0,5.0
263,506.0,616.0,470.0,4.0,5.0,6.0
264,505.0,616.0,470.0,4.0,6.0,5.0
265,505.0,616.0,470.0,4.0,6.0,5.0
266,506.0,617.0,470.0,5.0,6.0,5.0
267,506.0,616.0,470.0,4.0,6.0,5.0
268,506.0,617.0,470.0,5.0,6.0,5.0
269,505.0,616.0,470.0,4.0,6.0,7.0
270,505.0,616.0,470.0,4.0,6.0,5.0
271,505.0,617.0,470.0,5.0,6.0,5.0
272,505.0,617.0,470.0,4.0,6.0,5.0
273,505.0,617.0,469.0,4.0,6.0,6.0
274,506.0,617.0,470.0,4.0,6.0,6.0
275,506.0,617.0,470.0,4.0,6.0,5.0
276,505.0,617.0,470.0,4.0,6.0,5.0
277,505.0,617.0,470.0,4.0,6.0,6.0
278,505.0,617.0,470.0,5.0,6.0,5.0
279,505.0,616.0,470.0,4.0,6.0,5.0
280,506.0,616.0,470.0,4.0,5.0,5.0
281,506.0,616.0,469.0,4.0,6.0,5.0
282,505.0,616.0,470.0,4.0,6.0,5.0
283,505.0,617.0,470.0,4.0,6.0,5.0
284,505.0,617.0,470.0,4.0,6.0,5.0
285,505.0,617.0,470.0,4.0,6.0,5.0
286,505.0,616.0,470.0,4.0,6.0,5.0
287,505.0,617.0,470.0,5.0,6.0,5.0
288,505.0,617.0,470.0,4.0,6.0,5.0
289,506.0,617.0,470.0,4.0,6.0,5.0
290,505.0,617.0,470.0,4.0,6.0,5.0
291,505.0,616.0,470.0,4.0,6.0,6.0
292,505.0,617.0,469.0,4.0,6.0,6.0
293,505.0,616.0,470.0,4.0,6.0,5.0
294,505.0,616.0,470.0,4.0,6.0,6.0
295,505.0,617.0,470.0,5.0,6.0,6.0
296,506.0,617.0,470.0,5.0,6.0,5.0
297,505.0,617.0,469.0,5.0,6.0,6.0
298,505.0,617.0,470.0,4.0,6.0,5.0
299,505.0,616.0,469.0,4.0,6.0,5.0
300,505.0,617.0,470.0,4.0,6.0,5.0
301,505.0,617.0,470.0,4.0,6.0,5.0
302,505.0,617.0,470.0,4.0,6.0,5.0
303,505.0,617.0,470.0,4.0,6.0,5.0
304,506.0,616.0,470.0,5.0,6.0,6.0
305,506.0,617.0,470.0,4.0,6.0,5.0
306,506.0,617.0,470.0,4.0,6.0,6.0
307,506.0,617.0,469.0,6.0,6.0,6.0
308,505.0,616.0,470.0,4.0,6.0,6.0
309,505.0,616.0,470.0,5.0,6.0,6.0
310,505.0,616.0,470.0,4.0,6.0,6.0
311,505.0,616.0,469.0,5.0,6.0,6.0
312,506.0,616.0,470.0,4.0,6.0,5.0
313,505.0,617.0,470.0,4.0,6.0,5.0
314,505.0,617.0,470.0,5.0,6.0,6.0
315,505.0,617.0,470.0,5.0,5.0,5.0
316,505.0,617.0,470.0,5.0,5.0,6.0
317,505.0,617.0,470.0,4.0,6.0,6.0
318,505.0,616.0,470.0,4.0,6.0,6.0
319,505.0,617.0,470.0,5.0,6.0,5.0
320,506.0,617.0,469.0,4.0,6.0,5.0
321,505.0,617.0,470.0,5.0,6.0,6.0
322,505.0,617.0,470.0,5.0,6.0,5.0
323,505.0,617.0,470.0,5.0,6.0,6.0
324,505.0,617.0,470.0,4.0,6.0,6.0
325,505.0,617.0,469.0,3.0,6.0,6.0
326,506.0,616.0,470.0,5.0,8.0,6.0
327,505.0,616.0,470.0,4.0,6.0,6.0
328,506.0,616.0,469.0,5.0,6.0,5.0
329,505.0,617.0,470.0,4.0,5.0,6.0
330,505.0,616.0,470.0,4.0,6.0,5.0
331,505.0,617.0,470.0,4.0,6.0,6.0
332,505.0,616.0,470.0,5.0,6.0,6.0
333,505.0,617.0,470.0,4.0,6.0,6.0
334,505.0,617.0,469.0,5.0,6.0,6.0
335,506.0,617.0,469.0,4.0,6.0,5.0
336,505.0,617.0,470.0,4.0,6.0,6.0
337,505.0,617.0,470.0,4.0,6.0,6.0
338,506.0,616.0,469.0,4.0,6.0,6.0
339,506.0,617.0,470.0,4.0,6.0,5.0
340,505.0,617.0,470.0,4.0,6.0,6.0
341,505.0,616.0,469.0,5.0,6.0,6.0
342,505.0,616.0,470.0,5.0,6.0,6.0
343,506.0,617.0,469.0,4.0,6.0,5.0
344,505.0,616.0,470.0,4.0,6.0,6.0
345,505.0,617.0,470.0,4.0,6.0,5.0
346,505.0,617.0,470.0,5.0,6.0,6.0
347,505.0,617.0,470.0,4.0,6.0,5.0
348,505.0,617.0,470.0,5.0,6.0,6.0
349,506.0,617.0,470.0,4.0,6.0,6.0
350,505.0,617.0,470.0,4.0,6.0,6.0
351,505.0,617.0,470.0,4.0,6.0,7.0
352,506.0,618.0,470.0,4.0,6.0,6.0
353,505.0,617.0,470.0,4.0,6.0,6.0
354,505.0,617.0,470.0,4.0,7.0,6.0
355,505.0,617.0,470.0,5.0,8.0,6.0
356,506.0,617.0,470.0,5.0,7.0,7.0
357,506.0,616.0,470.0,5.0,8.0,6.0
358,506.0,616.0,470.0,6.0,8.0,7.0
359,505.0,615.0,469.0,8.0,12.0,9.0
360,505.0,616.0,470.0,9.0,12.0,9.0
361,505.0,617.0,470.0,9.0,12.0,9.0
362,505.0,617.0,470.0,8.0,12.0,9.0
363,505.0,617.0,470.0,8.0,12.0,10.0
364,505.0,617.0,470.0,9.0,12.0,9.0
365,505.0,617.0,470.0,9.0,12.0,9.0
366,505.0,617.0,470.0,8.0,12.0,9.0
367,505.0,616.0,470.0,8.0,12.0,9.0
368,505.0,617.0,470.0,9.0,11.0,9.0
369,505.0,616.0,469.0,8.0,11.0,9.0
370,505.0,617.0,470.0,8.0,11.0,9.0
371,506.0,617.0,469.0,8.0,11.0,9.0
372,505.0,616.0,470.0,8.0,11.0,9.0
373,505.0,617.0,470.0,8.0,12.0,9.0
374,505.0,616.0,469.0,8.0,11.0,8.0
375,506.0,617.0,469.0,7.0,11.0,9.0
376,506.0,617.0,470.0,8.0,11.0,9.0
377,506.0,617.0,469.0,7.0,11.0,9.0
378,506.0,617.0,470.0,7.0,11.0,8.0
379,506.0,617.0,469.0,7.0,11.0,9.0
380,505.0,617.0,470.0,7.0,11.0,8.0
381,505.0,616.0,470.0,8.0,10.0,9.0
382,506.0,616.0,470.0,7.0,10.0,8.0
383,505.0,617.0,469.0,7.0,10.0,8.0
384,505.0,617.0,470.0,8.0,10.0,8.0
385,506.0,617.0,470.0,7.0,10.0,8.0
386,505.0,617.0,470.0,7.0,10.0,8.0
387,505.0,617.0,470.0,7.0,10.0,8.0
388,505.0,617.0,470.0,7.0,10.0,8.0
389,505.0,617.0,469.0,6.0,10.0,8.0
390,505.0,617.0,470.0,7.0,10.0,8.0
391,505.0,617.0,470.0,7.0,10.0,9.0
392,506.0,616.0,470.0,7.0,10.0,8.0
393,506.0,617.0,470.0,7.0,9.0,8.0
394,506.0,616.0,469.0,6.0,10.0,8.0
395,505.0,616.0,470.0,7.0,9.0,8.0
396,506.0,617.0,470.0,6.0,10.0,8.0
397,505.0,616.0,469.0,7.0,9.0,8.0
398,505.0,617.0,470.0,7.0,10.0,8.0
399,505.0,616.0,469.0,7.0,10.0,8.0
400,505.0,617.0,470.0,7.0,9.0,8.0
401,505.0,616.0,470.0,7.0,9.0,8.0
402,506.0,616.0,470.0,7.0,9.0,8.0
403,505.0,616.0,470.0,7.0,9.0,7.0
404,506.0,616.0,470.0,7.0,9.0,7.0
405,505.0,616.0,470.0,6.0,9.0,7.0
406,505.0,617.0,470.0,7.0,9.0,7.0
407,506.0,617.0,470.0,7.0,9.0,7.0
408,505.0,617.0,470.0,7.0,9.0,7.0
409,505.0,616.0,470.0,7.0,9.0,7.0
410,506.0,617.0,469.0,7.0,9.0,7.0
411,505.0,617.0,470.0,6.0,9.0,7.0
412,505.0,617.0,470.0,6.0,9.0,7.0
413,505.0,616.0,470.0,6.0,9.0,7.0
414,505.0,617.0,470.0,6.0,9.0,8.0
415,505.0,617.0,470.0,6.0,9.0,8.0
416,505.0,616.0,470.0,6.0,9.0,8.0
417,505.0,617.0,469.0,6.0,9.0,7.0
418,506.0,616.0,470.0,6.0,8.0,7.0
419,506.0,617.0,470.0,7.0,8.0,7.0
420,505.0,617.0,470.0,6.0,8.0,7.0
421,505.0,617.0,470.0,6.0,8.0,7.0
422,505.0,616.0,470.0,6.0,8.0,7.0
423,505.0,616.0,470.0,6.0,8.0,6.0
424,505.0,617.0,469.0,6.0,8.0,7.0
425,505.0,616.0,470.0,6.0,8.0,7.0
426,505.0,616.0,470.0,6.0,8.0,7.0
427,505.0,616.0,470.0,6.0,8.0,7.0
428,505.0,617.0,470.0,6.0,8.0,7.0
429,506.0,617.0,470.0,6.0,8.0,6.0
430,505.0,616.0,470.0,6.0,8.0,7.0
431,505.0,617.0,470.0,6.0,8.0,7.0
432,505.0,616.0,470.0,6.0,8.0,7.0
433,505.0,616.0,470.0,6.0,8.0,7.0
434,505.0,617.0,470.0,6.0,8.0,7.0
435,505.0,617.0,470.0,6.0,8.0,7.0
436,505.0,616.0,470.0,5.0,8.0,7.0
437,506.0,616.0,470.0,6.0,8.0,7.0
438,506.0,617.0,470.0,6.0,7.0,7.0
439,505.0,617.0,470.0,5.0,8.0,7.0
440,505.0,616.0,470.0,5.0,6.0,7.0
441,505.0,616.0,470.0,6.0,8.0,8.0
442,505.0,617.0,470.0,6.0,7.0,8.0
443,505.0,617.0,470.0,6.0,7.0,8.0
444,506.0,617.0,470.0,6.0,7.0,8.0
445,505.0,617.0,470.0,6.0,7.0,8.0
446,505.0,617.0,470.0,6.0,7.0,8.0
447,505.0,616.0,470.0,6.0,7.0,8.0
448,506.0,617.0,470.0,5.0,8.0,8.0
449,505.0,617.0,470.0,5.0,7.0,8.0
450,505.0,617.0,470.0,6.0,8.0,7.0
451,506.0,616.0,470.0,6.0,8.0,7.0
452,506.0,616.0,470.0,5.0,7.0,7.0
453,506.0,617.0,470.0,6.0,7.0,8.0
454,505.0,616.0,470.0,5.0,7.0,7.0
455,505.0,616.0,470.0,5.0,8.0,7.0
456,505.0,616.0,470.0,5.0,7.0,7.0
457,505.0,616.0,470.0,5.0,7.0,8.0
458,506.0,616.0,470.0,5.0,7.0,7.0
459,505.0,616.0,470.0,6.0,7.0,7.0
460,506.0,617.0,470.0,5.0,7.0,7.0
461,505.0,617.0,470.0,5.0,7.0,7.0
462,505.0,617.0,470.0,5.0,7.0,7.0
463,505.0,616.0,470.0,5.0,7.0,8.0
464,506.0,617.0,470.0,5.0,7.0,7.0
465,505.0,616.0,470.0,6.0,7.0,7.0
466,505.0,616.0,470.0,5.0,7.0,7.0
467,505.0,616.0,470.0,5.0,7.0,7.0
468,505.0,617.0,470.0,5.0,7.0,6.0
469,505.0,617.0,469.0,5.0,7.0,7.0
470,505.0,617.0,470.0,5.0,7.0,7.0
471,505.0,617.0,470.0,5.0,7.0,7.0
472,505.0,617.0,470.0,6.0,7.0,7.0
473,505.0,617.0,470.0,5.0,7.0,7.0
474,505.0,616.0,470.0,5.0,6.0,6.0
475,506.0,616.0,470.0,5.0,7.0,7.0
476,505.0,617.0,470.0,5.0,6.0,7.0
477,505.0,617.0,470.0,5.0,7.0,7.0
478,505.0,616.0,470.0,5.0,7.0,7.0
479,505.0,616.0,470.0,5.0,6.0,7.0
480,505.0,616.0,470.0,5.0,7.0,7.0
481,505.0,617.0,470.0,5.0,7.0,7.0
482,505.0,616.0,470.0,5.0,7.0,7.0
483,506.0,617.0,470.0,5.0,7.0,6.0
484,505.0,616.0,470.0,5.0,7.0,7.0
485,505.0,616.0,470.0,5.0,6.0,7.0
486,506.0,616.0,470.0,5.0,7.0,7.0
487,505.0,617.0,470.0,5.0,7.0,7.0
488,505.0,616.0,470.0,5.0,7.0,7.0
489,506.0,616.0,470.0,5.0,7.0,6.0
490,506.0,617.0,470.0,4.0,7.0,6.0
491,505.0,617.0,470.0,5.0,7.0,7.0
492,505.0,616.0,469.0,5.0,6.0,6.0
493,505.0,617.0,470.0,5.0,5.0,7.0
494,505.0,617.0,470.0,5.0,6.0,6.0
495,505.0,617.0,470.0,5.0,7.0,6.0
496,505.0,617.0,470.0,5.0,6.0,7.0
497,505.0,617.0,470.0,5.0,6.0,6.0
498,505.0,617.0,470.0,5.0,6.0,7.0
499,506.0,617.0,470.0,5.0,6.0,6.0
500,505.0,616.0,470.0,5.0,6.0,6.0
501,505.0,617.0,470.0,4.0,6.0,6.0
502,505.0,617.0,470.0,4.0,6.0,6.0
503,506.0,617.0,470.0,5.0,6.0,7.0
504,506.0,616.0,470.0,5.0,6.0,6.0
505,505.0,616.0,470.0,4.0,6.0,6.0
506,505.0,617.0,469.0,5.0,6.0,7.0
507,505.0,617.0,470.0,5.0,6.0,7.0
508,505.0,616.0,470.0,5.0,6.0,6.0
509,505.0,616.0,469.0,4.0,6.0,6.0
510,505.0,617.0,470.0,5.0,6.0,6.0
511,505.0,617.0,470.0,5.0,6.0,6.0
512,505.0,617.0,470.0,4.0,6.0,6.0
513,506.0,616.0,469.0,4.0,6.0,6.0
514,505.0,617.0,470.0,5.0,6.0,6.0
515,505.0,617.0,470.0,5.0,6.0,6.0
516,505.0,616.0,470.0,5.0,6.0,6.0
517,505.0,616.0,470.0,5.0,6.0,6.0
518,505.0,616.0,470.0,5.0,6.0,6.0
519,505.0,617.0,470.0,5.0,5.0,6.0
520,505.0,617.0,470.0,5.0,6.0,6.0
521,505.0,617.0,470.0,4.0,6.0,6.0
522,505.0,617.0,470.0,5.0,6.0,6.0
523,505.0,616.0,470.0,5.0,6.0,6.0
524,505.0,616.0,470.0,4.0,6.0,6.0
525,505.0,617.0,470.0,5.0,6.0,6.0
526,506.0,616.0,470.0,5.0,6.0,6.0
527,505.0,616.0,470.0,5.0,6.0,6.0
528,505.0,616.0,470.0,5.0,6.0,6.0
529,505.0,616.0,470.0,5.0,6.0,5.0
530,505.0,617.0,470.0,5.0,6.0,5.0
531,505.0,617.0,470.0,5.0,6.0,6.0
532,505.0,617.0,470.0,5.0,6.0,5.0
533,505.0,616.0,470.0,5.0,6.0,6.0
534,506.0,616.0,470.0,5.0,6.0,6.0
535,505.0,616.0,470.0,5.0,6.0,6.0
536,505.0,617.0,470.0,5.0,6.0,6.0
537,506.0,616.0,470.0,5.0,6.0,6.0
538,506.0,616.0,470.0,4.0,6.0,6.0
539,505.0,616.0,469.0,4.0,6.0,6.0
540,505.0,616.0,470.0,5.0,6.0,6.0
541,506.0,616.0,470.0,5.0,6.0,6.0
542,505.0,616.0,470.0,5.0,6.0,6.0
543,505.0,617.0,470.0,5.0,6.0,6.0
544,505.0,617.0,470.0,4.0,5.0,6.0
545,506.0,617.0,470.0,5.0,6.0,6.0
546,505.0,617.0,470.0,4.0,6.0,6.0
547,505.0,617.0,470.0,5.0,6.0,5.0
548,505.0,617.0,470.0,5.0,6.0,6.0
549,505.0,616.0,470.0,5.0,6.0,6.0
550,506.0,616.0,470.0,4.0,6.0,5.0
551,505.0,616.0,470.0,4.0,6.0,5.0
552,505.0,616.0,470.0,4.0,6.0,6.0
553,505.0,617.0,470.0,4.0,6.0,5.0
554,505.0,617.0,470.0,4.0,6.0,5.0
555,505.0,616.0,470.0,4.0,6.0,6.0
556,506.0,617.0,469.0,4.0,6.0,6.0
557,506.0,617.0,470.0,4.0,5.0,5.0
558,505.0,617.0,470.0,4.0,6.0,6.0
559,505.0,616.0,470.0,4.0,5.0,5.0
560,505.0,616.0,470.0,4.0,6.0,6.0
561,505.0,617.0,470.0,5.0,5.0,6.0
562,506.0,617.0,470.0,4.0,6.0,5.0
563,505.0,617.0,470.0,4.0,6.0,6.0
564,505.0,617.0,470.0,4.0,5.0,6.0
565,506.0,616.0,470.0,4.0,6.0,5.0
566,505.0,617.0,470.0,4.0,6.0,5.0
567,505.0,616.0,470.0,4.0,6.0,6.0
568,505.0,617.0,470.0,5.0,5.0,5.0
569,505.0,617.0,470.0,4.0,5.0,5.0
570,505.0,616.0,470.0,4.0,5.0,6.0
571,505.0,616.0,470.0,4.0,6.0,6.0
572,505.0,617.0,470.0,4.0,5.0,6.0
573,505.0,616.0,470.0,4.0,6.0,6.0
574,505.0,616.0,470.0,4.0,6.0,6.0
575,505.0,616.0,470.0,5.0,6.0,6.0
576,505.0,616.0,470.0,4.0,6.0,6.0
577,505.0,617.0,470.0,5.0,5.0,6.0
578,505.0,617.0,470.0,4.0,6.0,6.0
579,505.0,617.0,470.0,4.0,6.0,6.0
580,506.0,616.0,470.0,5.0,5.0,6.0
581,505.0,616.0,469.0,4.0,5.0,6.0
582,505.0,616.0,470.0,5.0,6.0,6.0
583,505.0,616.0,469.0,4.0,6.0,6.0
584,505.0,617.0,470.0,4.0,6.0,6.0
585,505.0,617.0,470.0,5.0,6.0,6.0
586,506.0,616.0,470.0,5.0,6.0,6.0
587,505.0,617.0,470.0,5.0,6.0,5.0
588,505.0,617.0,469.0,4.0,6.0,5.0
589,505.0,617.0,470.0,4.0,6.0,6.0
590,505.0,616.0,470.0,4.0,6.0,5.0
591,505.0,616.0,470.0,5.0,6.0,6.0
592,505.0,617.0,470.0,4.0,6.0,5.0
593,505.0,617.0,469.0,4.0,6.0,5.0
594,505.0,617.0,470.0,4.0,6.0,6.0
595,505.0,617.0,470.0,5.0,6.0,5.0
596,505.0,617.0,470.0,4.0,6.0,5.0
597,505.0,617.0,470.0,4.0,5.0,6.0
598,505.0,617.0,470.0,5.0,5.0,6.0
599,506.0,617.0,470.0,4.0,5.0,6.0
600,506.0,617.0,470.0,5.0,6.0,6.0
601,506.0,616.0,470.0,5.0,6.0,6.0
602,506.0,616.0,470.0,4.0,5.0,6.0
603,506.0,617.0,470.0,4.0,5.0,5.0
604,505.0,617.0,470.0,4.0,5.0,6.0
605,505.0,616.0,471.0,4.0,6.0,6.0
606,505.0,616.0,470.0,4.0,5.0,6.0
607,505.0,616.0,470.0,4.0,5.0,6.0
608,505.0,617.0,470.0,5.0,6.0,6.0
609,506.0,616.0,470.0,4.0,5.0,6.0
610,506.0,616.0,470.0,4.0,5.0,6.0
611,505.0,616.0,470.0,4.0,6.0,6.0
612,505.0,617.0,470.0,5.0,6.0,6.0
613,505.0,617.0,470.0,4.0,6.0,6.0
614,505.0,617.0,470.0,5.0,5.0,6.0
615,505.0,617.0,470.0,4.0,6.0,6.0
616,506.0,617.0,470.0,4.0,5.0,6.0
617,505.0,616.0,470.0,5.0,6.0,6.0
618,505.0,617.0,470.0,5.0,5.0,6.0
619,505.0,617.0,470.0,4.0,5.0,6.0
620,505.0,616.0,469.0,4.0,5.0,6.0
621,505.0,617.0,470.0,4.0,6.0,6.0
622,505.0,616.0,470.0,4.0,6.0,6.0
623,505.0,616.0,470.0,4.0,6.0,6.0
624,506.0,616.0,470.0,5.0,6.0,6.0
625,505.0,616.0,470.0,5.0,6.0,5.0
626,505.0,617.0,470.0,4.0,6.0,6.0
627,505.0,617.0,470.0,4.0,6.0,6.0
628,505.0,617.0,470.0,4.0,6.0,6.0
629,505.0,617.0,470.0,4.0,6.0,6.0
630,505.0,616.0,470.0,4.0,6.0,6.0
631,506.0,617.0,470.0,4.0,6.0,6.0
632,505.0,617.0,470.0,4.0,5.0,6.0
633,506.0,616.0,470.0,3.0,5.0,6.0
634,506.0,616.0,470.0,4.0,6.0,6.0
635,506.0,616.0,470.0,4.0,6.0,6.0
636,506.0,616.0,469.0,4.0,6.0,6.0
637,505.0,616.0,469.0,4.0,6.0,6.0
638,505.0,616.0,470.0,4.0,5.0,6.0
639,505.0,616.0,469.0,4.0,6.0,6.0
640,505.0,616.0,470.0,4.0,6.0,6.0
641,505.0,617.0,469.0,4.0,6.0,5.0
642,505.0,617.0,469.0,4.0,6.0,7.0
643,505.0,616.0,470.0,5.0,6.0,6.0
644,505.0,616.0,470.0,4.0,6.0,6.0
645,505.0,617.0,469.0,4.0,6.0,6.0
646,506.0,617.0,470.0,4.0,6.0,6.0
647,506.0,616.0,470.0,4.0,6.0,6.0
648,505.0,616.0,470.0,4.0,6.0,6.0
649,505.0,616.0,470.0,4.0,6.0,7.0
650,505.0,616.0,469.0,4.0,6.0,6.0
651,505.0,616.0,469.0,4.0,6.0,7.0
652,505.0,617.0,470.0,4.0,6.0,7.0
653,505.0,617.0,470.0,4.0,6.0,6.0
654,505.0,616.0,470.0,5.0,6.0,6.0
655,505.0,617.0,470.0,4.0,5.0,6.0
656,505.0,617.0,470.0,4.0,5.0,6.0
657,505.0,617.0,470.0,4.0,5.0,6.0
658,505.0,617.0,470.0,4.0,6.0,6.0
659,505.0,617.0,470.0,4.0,6.0,6.0
660,505.0,617.0,470.0,5.0,5.0,6.0
661,505.0,617.0,470.0,4.0,6.0,5.0
662,505.0,616.0,470.0,4.0,5.0,6.0
663,505.0,617.0,470.0,4.0,6.0,6.0
664,505.0,617.0,470.0,4.0,5.0,6.0
665,505.0,617.0,470.0,4.0,5.0,7.0
666,505.0,616.0,470.0,5.0,5.0,6.0
667,506.0,616.0,470.0,4.0,6.0,6.0
668,505.0,617.0,470.0,4.0,5.0,5.0
669,506.0,616.0,469.0,4.0,5.0,6.0
670,505.0,616.0,470.0,5.0,5.0,6.0
671,505.0,617.0,470.0,4.0,5.0,6.0
672,505.0,616.0,470.0,4.0,6.0,6.0
673,505.0,616.0,469.0,4.0,5.0,7.0
674,505.0,616.0,469.0,4.0,5.0,6.0
675,505.0,617.0,469.0,4.0,6.0,7.0
676,506.0,616.0,470.0,4.0,6.0,6.0
677,506.0,616.0,469.0,4.0,6.0,6.0
678,506.0,617.0,469.0,4.0,6.0,6.0
679,505.0,617.0,469.0,4.0,5.0,6.0
680,505.0,617.0,470.0,4.0,5.0,6.0
681,505.0,617.0,469.0,4.0,6.0,6.0
682,506.0,617.0,470.0,4.0,6.0,6.0
683,505.0,617.0,470.0,4.0,5.0,5.0
684,505.0,616.0,470.0,4.0,5.0,6.0
685,506.0,616.0,469.0,4.0,6.0,5.0
686,505.0,616.0,470.0,4.0,5.0,6.0
687,505.0,617.0,470.0,4.0,6.0,6.0
688,505.0,617.0,470.0,4.0,5.0,6.0
689,506.0,617.0,470.0,4.0,5.0,6.0
690,506.0,617.0,470.0,5.0,6.0,6.0
691,506.0,617.0,470.0,4.0,7.0,6.0
692,506.0,617.0,470.0,4.0,7.0,6.0
693,506.0,617.0,470.0,5.0,7.0,7.0
694,505.0,617.0,470.0,4.0,7.0,7.0
695,506.0,616.0,470.0,6.0,9.0,7.0
696,505.0,615.0,469.0,7.0,11.0,9.0
697,505.0,616.0,469.0,7.0,12.0,9.0
698,505.0,616.0,470.0,7.0,11.0,9.0
699,506.0,617.0,470.0,6.0,11.0,9.0
700,505.0,617.0,470.0,7.0,11.0,9.0
701,506.0,617.0,469.0,7.0,11.0,9.0
702,505.0,616.0,469.0,7.0,11.0,9.0
703,505.0,617.0,470.0,7.0,11.0,8.0
704,505.0,617.0,469.0,6.0,11.0,9.0
705,505.0,616.0,469.0,7.0,11.0,9.0
706,505.0,616.0,470.0,6.0,11.0,9.0
707,505.0,617.0,470.0,7.0,10.0,9.0
708,505.0,617.0,469.0,7.0,11.0,9.0
709,505.0,617.0,470.0,7.0,10.0,8.0
710,506.0,616.0,469.0,7.0,10.0,9.0
711,505.0,617.0,470.0,7.0,10.0,8.0
712,505.0,617.0,470.0,6.0,10.0,8.0
713,506.0,616.0,470.0,7.0,10.0,8.0
714,505.0,616.0,470.0,6.0,10.0,8.0
715,505.0,616.0,470.0,6.0,10.0,8.0
716,505.0,616.0,470.0,6.0,10.0,8.0
717,505.0,616.0,470.0,7.0,10.0,8.0
718,505.0,617.0,470.0,6.0,10.0,8.0
719,505.0,616.0,470.0,7.0,10.0,8.0
720,505.0,616.0,470.0,6.0,10.0,8.0
721,505.0,617.0,470.0,6.0,10.0,8.0
722,505.0,617.0,470.0,6.0,10.0,8.0
723,505.0,617.0,470.0,6.0,10.0,8.0
724,506.0,617.0,470.0,6.0,9.0,8.0
725,505.0,616.0,469.0,6.0,9.0,8.0
726,505.0,617.0,469.0,6.0,9.0,7.0
727,506.0,616.0,469.0,6.0,9.0,7.0
728,506.0,617.0,469.0,7.0,9.0,8.0
729,505.0,617.0,469.0,6.0,9.0,7.0
730,505.0,617.0,469.0,6.0,9.0,7.0
731,505.0,616.0,470.0,6.0,9.0,7.0
732,506.0,616.0,470.0,6.0,9.0,7.0
733,506.0,616.0,469.0,6.0,9.0,7.0
734,505.0,616.0,470.0,6.0,9.0,7.0
735,506.0,616.0,470.0,6.0,9.0,7.0
736,506.0,616.0,470.0,6.0,9.0,6.0
737,506.0,616.0,470.0,5.0,9.0,7.0
738,505.0,616.0,470.0,5.0,9.0,7.0
739,505.0,616.0,470.0,6.0,8.0,7.0
740,505.0,616.0,469.0,6.0,8.0,7.0
741,506.0,616.0,470.0,6.0,8.0,7.0
742,505.0,616.0,470.0,6.0,9.0,7.0
743,506.0,617.0,470.0,6.0,9.0,7.0
744,505.0,617.0,470.0,6.0,8.0,7.0
745,505.0,617.0,469.0,6.0,9.0,7.0
746,505.0,617.0,470.0,6.0,8.0,7.0
747,505.0,617.0,470.0,6.0,8.0,7.0
748,506.0,616.0,470.0,6.0,8.0,7.0
749,506.0,617.0,470.0,5.0,8.0,7.0
750,505.0,616.0,470.0,6.0,8.0,8.0
751,505.0,617.0,470.0,5.0,8.0,7.0
752,505.0,617.0,470.0,6.0,8.0,7.0
753,505.0,617.0,470.0,5.0,8.0,7.0
754,505.0,617.0,470.0,6.0,8.0,7.0
755,505.0,617.0,470.0,5.0,8.0,6.0
756,505.0,616.0,470.0,5.0,8.0,7.0
757,506.0,617.0,470.0,6.0,8.0,8.0
758,505.0,617.0,470.0,6.0,8.0,7.0
759,505.0,617.0,470.0,6.0,8.0,7.0
760,505.0,617.0,470.0,7.0,8.0,7.0
761,505.0,617.0,469.0,6.0,8.0,7.0
762,505.0,617.0,470.0,5.0,7.0,7.0
763,505.0,617.0,470.0,5.0,8.0,7.0
764,506.0,616.0,470.0,5.0,8.0,7.0
765,506.0,616.0,470.0,6.0,7.0,6.0
766,505.0,616.0,470.0,5.0,7.0,7.0
767,505.0,616.0,470.0,6.0,7.0,7.0
768,505.0,617.0,470.0,6.0,7.0,7.0
769,505.0,616.0,469.0,5.0,7.0,7.0
770,506.0,617.0,470.0,5.0,8.0,7.0
771,506.0,616.0,470.0,5.0,7.0,7.0
772,505.0,616.0,470.0,5.0,7.0,6.0
773,505.0,617.0,470.0,5.0,7.0,6.0
774,505.0,617.0,470.0,5.0,7.0,7.0
775,505.0,616.0,470.0,6.0,7.0,6.0
776,505.0,617.0,469.0,5.0,7.0,7.0
777,505.0,617.0,470.0,5.0,7.0,6.0
778,506.0,617.0,470.0,4.0,7.0,6.0
779,506.0,616.0,469.0,5.0,7.0,7.0
780,506.0,617.0,470.0,5.0,7.0,6.0
781,505.0,617.0,470.0,5.0,7.0,6.0
782,505.0,616.0,469.0,5.0,7.0,6.0
783,505.0,617.0,470.0,5.0,7.0,7.0
784,505.0,617.0,470.0,5.0,7.0,6.0
785,505.0,616.0,469.0,5.0,7.0,5.0
786,506.0,617.0,470.0,5.0,7.0,6.0
787,505.0,616.0,469.0,5.0,7.0,6.0
788,505.0,617.0,469.0,5.0,7.0,6.0
789,506.0,617.0,471.0,5.0,7.0,6.0
790,505.0,617.0,470.0,5.0,7.0,6.0
791,505.0,616.0,470.0,5.0,7.0,7.0
792,505.0,617.0,470.0,5.0,7.0,6.0
793,506.0,616.0,469.0,5.0,7.0,7.0
794,506.0,617.0,470.0,5.0,8.0,7.0
795,506.0,617.0,470.0,5.0,7.0,7.0
796,505.0,617.0,470.0,5.0,8.0,7.0
797,504.0,617.0,470.0,6.0,9.0,8.0
798,505.0,617.0,470.0,7.0,9.0,8.0
799,505.0,616.0,470.0,6.0,9.0,9.0
800,504.0,615.0,469.0,6.0,11.0,11.0
801,505.0,616.0,469.0,6.0,11.0,10.0
802,505.0,617.0,469.0,7.0,11.0,11.0
803,505.0,616.0,470.0,6.0,11.0,11.0
804,505.0,616.0,470.0,7.0,11.0,11.0
805,505.0,617.0,470.0,7.0,11.0,11.0
806,505.0,616.0,470.0,7.0,11.0,11.0
807,505.0,616.0,470.0,6.0,11.0,10.0
808,505.0,617.0,470.0,6.0,11.0,10.0
809,505.0,617.0,470.0,6.0,11.0,10.0
810,506.0,617.0,470.0,7.0,11.0,10.0
811,506.0,617.0,470.0,6.0,11.0,10.0
812,505.0,617.0,470.0,7.0,10.0,10.0
813,505.0,617.0,470.0,7.0,11.0,10.0
814,505.0,617.0,470.0,6.0,10.0,10.0
815,505.0,616.0,469.0,6.0,10.0,10.0
816,505.0,616.0,470.0,7.0,10.0,10.0
817,505.0,616.0,469.0,7.0,10.0,10.0
818,505.0,616.0,470.0,6.0,10.0,10.0
819,506.0,616.0,469.0,6.0,10.0,10.0
820,506.0,616.0,470.0,6.0,10.0,9.0
821,506.0,617.0,470.0,6.0,10.0,10.0
822,505.0,617.0,469.0,6.0,10.0,9.0
823,506.0,616.0,469.0,6.0,9.0,9.0
824,505.0,617.0,470.0,6.0,10.0,9.0
825,505.0,617.0,470.0,6.0,9.0,9.0
826,505.0,617.0,470.0,6.0,9.0,9.0
827,505.0,616.0,469.0,6.0,10.0,9.0
828,506.0,616.0,470.0,6.0,10.0,9.0
829,506.0,616.0,470.0,6.0,9.0,9.0
830,505.0,617.0,470.0,6.0,9.0,9.0
831,505.0,616.0,470.0,6.0,9.0,7.0
832,505.0,616.0,470.0,6.0,9.0,8.0
833,505.0,617.0,470.0,6.0,9.0,9.0
834,505.0,617.0,470.0,6.0,9.0,8.0
835,505.0,616.0,470.0,5.0,9.0,9.0
836,505.0,616.0,470.0,6.0,9.0,8.0
837,505.0,616.0,470.0,6.0,9.0,9.0
838,505.0,616.0,470.0,6.0,9.0,9.0
839,505.0,616.0,470.0,5.0,9.0,8.0
840,505.0,617.0,470.0,5.0,9.0,8.0
841,505.0,617.0,470.0,6.0,9.0,8.0
842,505.0,617.0,470.0,6.0,9.0,8.0
843,505.0,616.0,470.0,5.0,9.0,8.0
844,505.0,617.0,470.0,6.0,9.0,8.0
845,505.0,617.0,469.0,6.0,8.0,8.0
846,505.0,616.0,470.0,6.0,8.0,9.0
847,506.0,617.0,470.0,6.0,8.0,8.0
848,505.0,616.0,469.0,6.0,9.0,8.0
849,505.0,618.0,470.0,6.0,8.0,8.0
850,505.0,617.0,470.0,5.0,9.0,8.0
851,505.0,617.0,470.0,5.0,9.0,8.0
852,506.0,616.0,470.0,5.0,9.0,8.0
853,505.0,617.0,469.0,5.0,8.0,7.0
854,506.0,617.0,470.0,6.0,8.0,7.0
855,505.0,616.0,469.0,5.0,8.0,8.0
856,506.0,617.0,470.0,5.0,9.0,7.0
857,505.0,616.0,470.0,5.0,8.0,7.0
858,506.0,616.0,469.0,5.0,8.0,7.0
859,505.0,617.0,470.0,5.0,8.0,7.0
860,505.0,617.0,470.0,5.0,8.0,7.0
861,506.0,616.0,470.0,5.0,8.0,7.0
862,506.0,616.0,469.0,5.0,8.0,8.0
863,505.0,617.0,470.0,6.0,8.0,7.0
864,505.0,617.0,470.0,5.0,8.0,7.0
865,505.0,617.0,470.0,5.0,8.0,7.0
866,505.0,617.0,469.0,5.0,8.0,7.0
867,505.0,617.0,470.0,5.0,8.0,7.0
868,505.0,617.0,470.0,5.0,8.0,7.0
869,505.0,616.0,470.0,5.0,8.0,7.0
870,506.0,617.0,470.0,5.0,8.0,6.0
871,505.0,616.0,469.0,5.0,8.0,7.0
872,506.0,616.0,470.0,5.0,7.0,7.0
873,505.0,617.0,470.0,5.0,8.0,7.0
874,505.0,617.0,470.0,5.0,8.0,7.0
875,505.0,617.0,470.0,4.0,8.0,7.0
876,505.0,617.0,470.0,4.0,8.0,7.0
877,505.0,616.0,470.0,5.0,8.0,7.0
878,505.0,616.0,470.0,5.0,7.0,7.0
879,505.0,617.0,470.0,5.0,7.0,7.0
880,505.0,616.0,470.0,5.0,7.0,7.0
881,505.0,616.0,470.0,5.0,8.0,7.0
882,505.0,617.0,470.0,5.0,7.0,8.0
883,505.0,616.0,470.0,5.0,8.0,6.0
884,505.0,617.0,470.0,5.0,7.0,6.0
885,505.0,617.0,470.0,5.0,7.0,7.0
886,505.0,617.0,470.0,5.0,7.0,6.0
887,505.0,617.0,469.0,5.0,7.0,6.0
888,505.0,617.0,470.0,4.0,7.0,6.0
889,505.0,616.0,470.0,5.0,7.0,7.0
890,505.0,617.0,470.0,5.0,7.0,6.0
891,505.0,617.0,470.0,4.0,7.0,7.0
892,505.0,617.0,470.0,5.0,8.0,7.0
893,505.0,616.0,470.0,5.0,7.0,7.0
894,505.0,617.0,470.0,5.0,7.0,7.0
895,505.0,616.0,469.0,5.0,7.0,7.0
896,505.0,616.0,470.0,5.0,7.0,7.0
897,505.0,616.0,470.0,5.0,7.0,6.0
898,505.0,616.0,470.0,5.0,7.0,7.0
899,505.0,617.0,470.0,5.0,7.0,6.0
900,506.0,616.0,469.0,5.0,6.0,6.0
901,505.0,617.0,470.0,5.0,7.0,6.0
902,505.0,617.0,469.0,5.0,7.0,7.0
903,505.0,617.0,470.0,5.0,7.0,7.0
904,505.0,616.0,470.0,5.0,7.0,6.0
905,506.0,616.0,470.0,4.0,7.0,7.0
906,505.0,617.0,470.0,5.0,7.0,6.0
907,505.0,617.0,470.0,5.0,6.0,6.0
908,505.0,616.0,470.0,4.0,7.0,6.0
909,505.0,616.0,470.0,4.0,7.0,6.0
910,505.0,616.0,470.0,4.0,7.0,6.0
911,505.0,616.0,469.0,4.0,7.0,6.0
912,505.0,616.0,470.0,5.0,7.0,6.0
913,505.0,617.0,470.0,5.0,7.0,6.0
914,506.0,616.0,470.0,4.0,7.0,6.0
915,505.0,617.0,470.0,5.0,7.0,5.0
916,505.0,616.0,470.0,5.0,6.0,6.0
917,505.0,617.0,470.0,4.0,7.0,6.0
918,505.0,616.0,470.0,5.0,6.0,6.0
919,506.0,617.0,470.0,5.0,6.0,6.0
920,505.0,617.0,470.0,4.0,7.0,6.0
921,505.0,617.0,470.0,4.0,6.0,6.0
922,506.0,616.0,470.0,4.0,6.0,6.0
923,505.0,617.0,470.0,5.0,6.0,6.0
924,505.0,617.0,470.0,4.0,6.0,6.0
925,505.0,616.0,470.0,5.0,6.0,6.0
926,505.0,617.0,470.0,5.0,6.0,6.0
927,505.0,616.0,470.0,4.0,6.0,6.0
928,505.0,616.0,470.0,4.0,6.0,6.0
929,505.0,616.0,470.0,5.0,6.0,6.0
930,506.0,616.0,470.0,4.0,6.0,6.0
931,505.0,616.0,470.0,5.0,6.0,6.0
932,505.0,617.0,470.0,4.0,6.0,6.0
933,505.0,617.0,470.0,5.0,6.0,6.0
934,505.0,616.0,469.0,4.0,6.0,5.0
935,505.0,616.0,470.0,5.0,6.0,6.0
936,505.0,616.0,470.0,4.0,6.0,6.0
937,505.0,617.0,469.0,4.0,6.0,5.0
938,506.0,617.0,470.0,4.0,6.0,5.0
939,505.0,617.0,469.0,5.0,6.0,6.0
940,505.0,617.0,470.0,4.0,6.0,6.0
941,505.0,616.0,469.0,4.0,6.0,5.0
942,506.0,617.0,470.0,4.0,6.0,6.0
943,506.0,617.0,470.0,4.0,6.0,5.0
944,505.0,616.0,470.0,4.0,6.0,6.0
945,506.0,617.0,470.0,5.0,6.0,5.0
946,505.0,617.0,469.0,4.0,6.0,5.0
947,506.0,617.0,470.0,4.0,6.0,6.0
948,505.0,616.0,470.0,4.0,6.0,6.0
949,505.0,616.0,470.0,4.0,6.0,6.0
950,505.0,617.0,470.0,4.0,6.0,6.0
951,506.0,616.0,470.0,4.0,6.0,6.0
952,506.0,617.0,470.0,4.0,6.0,6.0
953,506.0,617.0,470.0,4.0,6.0,6.0
954,506.0,617.0,470.0,5.0,6.0,6.0
955,505.0,617.0,470.0,4.0,6.0,6.0
956,505.0,617.0,469.0,5.0,6.0,6.0
957,506.0,616.0,470.0,4.0,6.0,6.0
958,505.0,616.0,470.0,4.0,6.0,5.0
959,506.0,616.0,470.0,4.0,6.0,6.0
960,506.0,616.0,470.0,4.0,6.0,5.0
961,505.0,617.0,470.0,4.0,6.0,6.0
962,505.0,617.0,470.0,5.0,6.0,6.0
963,505.0,617.0,470.0,4.0,6.0,6.0
964,505.0,616.0,470.0,4.0,6.0,6.0
965,505.0,616.0,469.0,4.0,6.0,7.0
966,506.0,617.0,469.0,4.0,6.0,6.0
967,506.0,616.0,470.0,4.0,6.0,5.0
968,505.0,617.0,470.0,4.0,6.0,5.0
969,505.0,617.0,469.0,4.0,6.0,6.0
970,505.0,617.0,470.0,4.0,6.0,6.0
971,505.0,617.0,470.0,5.0,6.0,5.0
972,505.0,616.0,470.0,4.0,6.0,6.0
973,505.0,617.0,469.0,4.0,6.0,6.0
974,506.0,617.0,470.0,4.0,6.0,6.0
975,505.0,616.0,470.0,4.0,6.0,6.0
976,505.0,616.0,470.0,4.0,6.0,6.0
977,505.0,616.0,470.0,4.0,6.0,6.0
978,505.0,616.0,470.0,4.0,6.0,6.0
979,505.0,617.0,470.0,4.0,6.0,6.0
980,505.0,617.0,470.0,4.0,6.0,6.0
981,505.0,616.0,470.0,4.0,6.0,5.0
982,505.0,617.0,469.0,4.0,6.0,5.0
983,505.0,617.0,469.0,4.0,6.0,6.0
984,505.0,617.0,470.0,4.0,6.0,6.0
985,505.0,617.0,470.0,4.0,5.0,6.0
986,505.0,617.0,470.0,5.0,6.0,5.0
987,505.0,616.0,470.0,4.0,6.0,6.0
988,505.0,617.0,470.0,4.0,6.0,6.0
989,506.0,617.0,470.0,4.0,6.0,5.0
990,506.0,616.0,470.0,4.0,6.0,5.0
991,505.0,617.0,470.0,4.0,6.0,6.0
992,505.0,617.0,469.0,5.0,6.0,5.0
993,505.0,616.0,470.0,4.0,6.0,6.0
994,505.0,616.0,470.0,4.0,6.0,5.0
995,505.0,616.0,470.0,4.0,6.0,5.0
996,505.0,616.0,470.0,4.0,6.0,6.0
997,506.0,617.0,470.0,4.0,6.0,5.0
998,505.0,617.0,470.0,5.0,6.0,5.0
999,505.0,617.0,470.0,4.0,6.0,5.0
1000,505.0,617.0,470.0,4.0,6.0,6.0
1001,505.0,617.0,469.0,4.0,6.0,5.0
1002,505.0,616.0,470.0,4.0,6.0,5.0
1003,506.0,617.0,470.0,4.0,6.0,6.0
1004,505.0,617.0,470.0,4.0,6.0,6.0
1005,505.0,617.0,470.0,4.0,6.0,5.0
1006,505.0,617.0,470.0,5.0,6.0,5.0
1007,505.0,617.0,470.0,4.0,6.0,6.0
1008,505.0,617.0,470.0,4.0,6.0,6.0
1009,505.0,616.0,470.0,4.0,6.0,5.0
1010,506.0,616.0,470.0,4.0,6.0,7.0
1011,506.0,616.0,470.0,5.0,6.0,6.0
1012,506.0,617.0,470.0,5.0,6.0,6.0
1013,506.0,616.0,470.0,5.0,6.0,6.0
1014,506.0,616.0,470.0,5.0,6.0,6.0
1015,506.0,617.0,470.0,5.0,6.0,6.0
1016,505.0,617.0,470.0,4.0,5.0,6.0
1017,505.0,617.0,470.0,5.0,6.0,6.0
1018,505.0,617.0,470.0,4.0,6.0,6.0
1019,505.0,617.0,470.0,5.0,6.0,6.0
1020,505.0,616.0,470.0,5.0,6.0,5.0
1021,505.0,616.0,470.0,4.0,6.0,6.0
1022,506.0,616.0,469.0,5.0,6.0,6.0
1023,505.0,617.0,470.0,5.0,6.0,6.0
1024,505.0,617.0,469.0,5.0,6.0,6.0
1025,506.0,617.0,469.0,4.0,5.0,6.0
1026,506.0,617.0,469.0,4.0,6.0,6.0
1027,505.0,617.0,470.0,4.0,6.0,5.0
1028,505.0,617.0,470.0,5.0,6.0,5.0
1029,505.0,617.0,470.0,4.0,6.0,6.0
1030,505.0,616.0,470.0,5.0,6.0,6.0
1031,505.0,617.0,470.0,4.0,6.0,6.0
1032,505.0,617.0,470.0,4.0,6.0,6.0
1033,505.0,617.0,470.0,5.0,7.0,6.0
1034,505.0,617.0,470.0,4.0,6.0,6.0
1035,506.0,617.0,470.0,4.0,6.0,6.0
1036,505.0,616.0,470.0,5.0,6.0,6.0
1037,505.0,616.0,470.0,4.0,7.0,6.0
1038,506.0,616.0,470.0,5.0,7.0,6.0
1039,505.0,616.0,470.0,5.0,6.0,7.0
1040,505.0,616.0,470.0,4.0,6.0,6.0
1041,505.0,617.0,470.0,4.0,6.0,6.0
1042,506.0,616.0,470.0,4.0,6.0,6.0
1043,505.0,616.0,470.0,4.0,7.0,5.0
1044,505.0,617.0,470.0,4.0,6.0,5.0
1045,506.0,616.0,470.0,5.0,6.0,6.0
1046,505.0,616.0,470.0,5.0,6.0,5.0
1047,505.0,617.0,469.0,4.0,6.0,6.0
1048,505.0,616.0,470.0,4.0,6.0,6.0
1049,506.0,616.0,470.0,4.0,6.0,6.0
1050,505.0,617.0,470.0,5.0,6.0,5.0
1051,505.0,617.0,470.0,5.0,6.0,6.0
1052,505.0,617.0,469.0,4.0,6.0,6.0
1053,505.0,617.0,470.0,4.0,6.0,6.0
1054,505.0,617.0,470.0,3.0,6.0,5.0
1055,505.0,616.0,470.0,4.0,6.0,6.0
1056,506.0,616.0,470.0,4.0,6.0,6.0
1057,506.0,616.0,470.0,5.0,6.0,5.0
1058,505.0,616.0,470.0,4.0,6.0,5.0
1059,505.0,617.0,470.0,5.0,6.0,6.0
1060,505.0,616.0,470.0,5.0,6.0,6.0
1061,505.0,616.0,470.0,4.0,6.0,5.0
1062,505.0,617.0,470.0,5.0,6.0,6.0
1063,505.0,617.0,469.0,4.0,6.0,6.0
1064,505.0,617.0,470.0,4.0,6.0,5.0
1065,505.0,616.0,469.0,5.0,6.0,5.0
1066,505.0,616.0,470.0,4.0,6.0,5.0
1067,505.0,617.0,470.0,4.0,6.0,5.0
1068,505.0,617.0,470.0,5.0,6.0,6.0
1069,505.0,617.0,470.0,5.0,6.0,5.0
1070,505.0,617.0,469.0,5.0,6.0,6.0
1071,505.0,617.0,470.0,5.0,6.0,5.0
1072,505.0,617.0,470.0,5.0,6.0,5.0
1073,505.0,616.0,470.0,4.0,6.0,5.0
1074,505.0,617.0,470.0,5.0,6.0,6.0
1075,505.0,616.0,470.0,4.0,6.0,5.0
1076,505.0,617.0,469.0,4.0,5.0,5.0
1077,505.0,616.0,470.0,4.0,6.0,6.0
1078,505.0,617.0,470.0,5.0,6.0,5.0
1079,505.0,617.0,470.0,5.0,6.0,5.0
1080,505.0,617.0,470.0,5.0,6.0,5.0
1081,505.0,616.0,470.0,4.0,6.0,5.0
1082,505.0,616.0,470.0,4.0,6.0,5.0
1083,505.0,616.0,470.0,4.0,6.0,5.0
1084,505.0,617.0,470.0,5.0,6.0,5.0
1085,505.0,617.0,470.0,4.0,6.0,5.0
1086,506.0,616.0,470.0,4.0,6.0,5.0
1087,505.0,616.0,470.0,4.0,6.0,5.0
1088,505.0,617.0,470.0,4.0,6.0,5.0
1089,505.0,617.0,470.0,4.0,6.0,6.0
1090,505.0,617.0,470.0,4.0,6.0,5.0
1091,505.0,616.0,470.0,5.0,5.0,5.0
1092,505.0,617.0,470.0,4.0,6.0,5.0
1093,505.0,616.0,470.0,4.0,6.0,5.0
1094,506.0,616.0,470.0,5.0,6.0,5.0
1095,505.0,616.0,470.0,5.0,6.0,5.0
1096,505.0,617.0,470.0,4.0,6.0,5.0
1097,506.0,616.0,470.0,4.0,6.0,6.0
1098,505.0,617.0,470.0,4.0,6.0,5.0
1099,505.0,617.0,469.0,5.0,6.0,5.0
1100,505.0,616.0,470.0,4.0,6.0,6.0
1101,506.0,617.0,470.0,4.0,6.0,4.0
1102,506.0,617.0,470.0,4.0,6.0,5.0
1103,505.0,616.0,469.0,5.0,5.0,5.0
1104,505.0,616.0,470.0,4.0,5.0,5.0
1105,505.0,616.0,470.0,5.0,6.0,5.0
1106,505.0,616.0,470.0,4.0,5.0,5.0
1107,506.0,616.0,470.0,4.0,5.0,5.0
1108,505.0,616.0,470.0,4.0,6.0,5.0
1109,506.0,616.0,469.0,4.0,6.0,5.0
1110,506.0,617.0,470.0,4.0,5.0,5.0
1111,505.0,617.0,470.0,5.0,6.0,6.0
1112,505.0,617.0,468.0,5.0,6.0,6.0
1113,505.0,616.0,470.0,4.0,6.0,5.0
1114,505.0,616.0,470.0,5.0,6.0,5.0
1115,505.0,617.0,470.0,4.0,5.0,5.0
1116,505.0,617.0,470.0,4.0,5.0,6.0
1117,505.0,617.0,469.0,5.0,5.0,5.0
1118,505.0,617.0,470.0,5.0,5.0,5.0
1119,506.0,617.0,470.0,4.0,5.0,5.0
1120,505.0,617.0,470.0,4.0,5.0,5.0
1121,505.0,617.0,470.0,5.0,5.0,5.0
1122,505.0,616.0,470.0,5.0,5.0,5.0
1123,505.0,616.0,470.0,4.0,5.0,5.0
1124,505.0,616.0,470.0,4.0,6.0,5.0
1125,506.0,616.0,470.0,4.0,5.0,5.0
1126,505.0,617.0,470.0,5.0,5.0,6.0
1127,505.0,616.0,469.0,4.0,5.0,6.0
1128,505.0,616.0,470.0,5.0,6.0,5.0
1129,505.0,617.0,470.0,4.0,5.0,5.0
1130,505.0,617.0,470.0,5.0,6.0,6.0
1131,506.0,617.0,469.0,4.0,5.0,5.0
1132,505.0,616.0,470.0,4.0,6.0,5.0
1133,505.0,616.0,470.0,5.0,5.0,5.0
1134,505.0,617.0,470.0,5.0,5.0,5.0
1135,505.0,617.0,470.0,4.0,5.0,5.0
1136,505.0,617.0,470.0,5.0,5.0,5.0
1137,505.0,617.0,470.0,4.0,6.0,5.0
1138,505.0,617.0,470.0,4.0,5.0,5.0
1139,505.0,617.0,470.0,4.0,6.0,5.0
1140,506.0,617.0,470.0,4.0,5.0,5.0
1141,505.0,616.0,469.0,4.0,6.0,5.0
1142,505.0,617.0,470.0,5.0,6.0,5.0
1143,505.0,616.0,469.0,4.0,5.0,5.0
1144,505.0,616.0,470.0,4.0,6.0,5.0
1145,505.0,616.0,470.0,5.0,5.0,5.0
1146,506.0,617.0,471.0,4.0,6.0,5.0
1147,506.0,617.0,470.0,5.0,5.0,5.0
1148,505.0,616.0,470.0,5.0,5.0,5.0
1149,504.0,615.0,470.0,5.0,6.0,7.0
1150,505.0,617.0,470.0,5.0,6.0,7.0
1151,505.0,616.0,470.0,5.0,6.0,7.0
1152,505.0,616.0,470.0,6.0,7.0,8.0
1153,505.0,615.0,469.0,7.0,10.0,9.0
1154,505.0,616.0,469.0,7.0,10.0,9.0
1155,505.0,616.0,470.0,6.0,10.0,9.0
1156,505.0,616.0,469.0,7.0,10.0,9.0
1157,506.0,617.0,470.0,7.0,10.0,9.0
1158,505.0,616.0,470.0,7.0,10.0,9.0
1159,505.0,617.0,470.0,7.0,10.0,9.0
1160,505.0,617.0,470.0,7.0,9.0,9.0
1161,505.0,616.0,469.0,7.0,10.0,9.0
1162,505.0,616.0,470.0,7.0,9.0,9.0
1163,505.0,617.0,470.0,7.0,9.0,9.0
1164,505.0,616.0,470.0,7.0,9.0,9.0
1165,505.0,617.0,470.0,6.0,9.0,9.0
1166,506.0,616.0,470.0,6.0,10.0,9.0
1167,505.0,617.0,470.0,7.0,9.0,9.0
1168,506.0,617.0,470.0,7.0,9.0,9.0
1169,505.0,616.0,470.0,6.0,9.0,9.0
1170,505.0,616.0,470.0,7.0,9.0,9.0
1171,505.0,617.0,470.0,7.0,9.0,9.0
1172,505.0,617.0,469.0,7.0,9.0,9.0
1173,505.0,617.0,470.0,6.0,9.0,9.0
1174,505.0,616.0,469.0,6.0,9.0,9.0
1175,505.0,617.0,470.0,6.0,9.0,8.0
1176,505.0,617.0,469.0,6.0,9.0,8.0
1177,505.0,617.0,470.0,7.0,9.0,9.0
1178,506.0,616.0,470.0,6.0,9.0,8.0
1179,506.0,616.0,470.0,6.0,9.0,8.0
1180,505.0,617.0,470.0,6.0,8.0,8.0
1181,505.0,616.0,470.0,6.0,8.0,8.0
1182,505.0,616.0,470.0,6.0,9.0,8.0
1183,505.0,616.0,470.0,6.0,9.0,8.0
1184,505.0,617.0,470.0,6.0,8.0,8.0
1185,506.0,617.0,470.0,6.0,8.0,8.0
1186,506.0,617.0,470.0,6.0,8.0,7.0
1187,506.0,616.0,470.0,6.0,8.0,8.0
1188,505.0,617.0,470.0,5.0,8.0,7.0
1189,505.0,616.0,470.0,6.0,8.0,8.0
1190,505.0,616.0,470.0,6.0,8.0,8.0
1191,505.0,617.0,470.0,6.0,8.0,7.0
1192,505.0,617.0,469.0,6.0,8.0,7.0
1193,505.0,617.0,469.0,6.0,8.0,8.0
1194,506.0,617.0,470.0,6.0,8.0,8.0
1195,505.0,617.0,469.0,6.0,7.0,7.0
1196,505.0,616.0,470.0,6.0,8.0,8.0
1197,505.0,616.0,470.0,6.0,8.0,7.0
1198,505.0,616.0,469.0,6.0,7.0,8.0
1199,505.0,616.0,470.0,6.0,8.0,7.0
1200,505.0,616.0,470.0,6.0,8.0,7.0
1201,506.0,616.0,470.0,6.0,7.0,8.0
1202,505.0,617.0,470.0,5.0,8.0,7.0
1203,505.0,616.0,470.0,6.0,7.0,7.0
1204,505.0,617.0,470.0,6.0,7.0,7.0
1205,505.0,616.0,470.0,6.0,7.0,7.0
1206,505.0,617.0,470.0,5.0,8.0,7.0
1207,505.0,617.0,470.0,6.0,7.0,7.0
1208,505.0,617.0,469.0,5.0,7.0,7.0
1209,506.0,617.0,470.0,6.0,8.0,8.0
1210,505.0,617.0,469.0,6.0,7.0,7.0
1211,505.0,616.0,470.0,5.0,7.0,7.0
1212,505.0,617.0,470.0,5.0,7.0,7.0
1213,505.0,616.0,470.0,6.0,7.0,7.0
1214,505.0,617.0,470.0,5.0,7.0,7.0
1215,506.0,616.0,470.0,6.0,7.0,7.0
1216,505.0,617.0,470.0,6.0,7.0,7.0
1217,505.0,617.0,470.0,6.0,7.0,7.0
1218,505.0,616.0,470.0,5.0,7.0,7.0
1219,505.0,616.0,470.0,5.0,7.0,7.0
1220,505.0,616.0,470.0,5.0,7.0,7.0
1221,505.0,616.0,470.0,5.0,7.0,7.0
1222,505.0,617.0,470.0,5.0,7.0,6.0
1223,505.0,616.0,470.0,5.0,7.0,7.0
1224,505.0,617.0,469.0,4.0,7.0,6.0
1225,505.0,617.0,470.0,5.0,7.0,7.0
1226,505.0,616.0,470.0,5.0,6.0,7.0
1227,505.0,617.0,470.0,5.0,7.0,6.0
1228,505.0,616.0,470.0,5.0,7.0,7.0
1229,505.0,617.0,470.0,5.0,7.0,7.0
1230,505.0,616.0,469.0,5.0,7.0,6.0
1231,505.0,616.0,469.0,5.0,7.0,7.0
1232,505.0,617.0,470.0,5.0,7.0,7.0
1233,505.0,616.0,470.0,5.0,7.0,6.0
1234,505.0,617.0,470.0,5.0,7.0,6.0
1235,505.0,617.0,470.0,5.0,6.0,6.0
1236,505.0,616.0,470.0,5.0,7.0,7.0
1237,505.0,616.0,470.0,6.0,6.0,7.0
1238,506.0,616.0,470.0,5.0,7.0,6.0
1239,506.0,616.0,470.0,6.0,6.0,6.0
1240,505.0,617.0,469.0,5.0,6.0,7.0
1241,505.0,616.0,470.0,5.0,6.0,7.0
1242,505.0,617.0,470.0,5.0,6.0,6.0
1243,505.0,617.0,470.0,5.0,6.0,7.0
1244,505.0,617.0,469.0,5.0,6.0,6.0
1245,506.0,616.0,470.0,5.0,6.0,6.0
1246,505.0,616.0,470.0,5.0,6.0,6.0
1247,505.0,617.0,470.0,5.0,7.0,6.0
1248,505.0,616.0,470.0,5.0,6.0,6.0
1249,505.0,616.0,469.0,5.0,6.0,7.0
1250,505.0,617.0,470.0,5.0,6.0,6.0
1251,505.0,617.0,470.0,4.0,7.0,7.0
1252,505.0,616.0,469.0,5.0,6.0,6.0
1253,505.0,617.0,470.0,5.0,6.0,6.0
1254,505.0,617.0,470.0,4.0,6.0,6.0
1255,505.0,616.0,470.0,5.0,6.0,7.0
1256,505.0,616.0,470.0,5.0,6.0,6.0
1257,505.0,616.0,470.0,5.0,6.0,6.0
1258,505.0,617.0,469.0,5.0,6.0,6.0
1259,505.0,617.0,470.0,5.0,6.0,6.0
1260,505.0,616.0,469.0,6.0,6.0,6.0
1261,505.0,617.0,469.0,5.0,6.0,6.0
1262,505.0,616.0,470.0,5.0,6.0,6.0
1263,505.0,616.0,469.0,5.0,6.0,6.0
1264,505.0,616.0,470.0,4.0,6.0,5.0
1265,505.0,616.0,469.0,4.0,6.0,6.0
1266,506.0,617.0,470.0,5.0,6.0,6.0
1267,506.0,617.0,470.0,5.0,6.0,6.0
1268,506.0,617.0,469.0,5.0,6.0,6.0
1269,506.0,616.0,470.0,5.0,6.0,6.0
1270,505.0,616.0,470.0,5.0,6.0,6.0
1271,505.0,616.0,470.0,5.0,6.0,6.0
1272,505.0,616.0,470.0,4.0,5.0,6.0
1273,505.0,616.0,470.0,4.0,6.0,6.0
1274,505.0,617.0,470.0,5.0,6.0,6.0
1275,505.0,616.0,470.0,4.0,6.0,6.0
1276,505.0,617.0,470.0,5.0,6.0,6.0
1277,505.0,616.0,469.0,4.0,6.0,6.0
1278,505.0,617.0,470.0,4.0,6.0,6.0
1279,505.0,617.0,470.0,4.0,6.0,6.0
1280,505.0,617.0,470.0,5.0,6.0,6.0
1281,505.0,617.0,470.0,5.0,6.0,6.0
1282,505.0,617.0,470.0,5.0,6.0,6.0
1283,506.0,617.0,470.0,4.0,6.0,6.0
1284,506.0,617.0,470.0,4.0,6.0,6.0
1285,505.0,617.0,470.0,5.0,6.0,6.0
1286,505.0,617.0,470.0,5.0,6.0,6.0
1287,505.0,617.0,470.0,5.0,6.0,6.0
1288,505.0,616.0,470.0,4.0,6.0,5.0
1289,505.0,617.0,470.0,4.0,6.0,6.0
1290,505.0,617.0,470.0,4.0,6.0,6.0
1291,505.0,617.0,470.0,5.0,6.0,6.0
1292,506.0,616.0,469.0,5.0,6.0,5.0
1293,505.0,616.0,470.0,4.0,6.0,6.0
1294,506.0,616.0,470.0,4.0,6.0,6.0
1295,505.0,617.0,470.0,5.0,6.0,6.0
1296,505.0,617.0,469.0,4.0,6.0,5.0
1297,505.0,617.0,470.0,4.0,6.0,6.0
1298,506.0,617.0,469.0,5.0,6.0,6.0
1299,506.0,617.0,470.0,5.0,6.0,5.0
1300,505.0,616.0,470.0,5.0,6.0,6.0
1301,506.0,617.0,470.0,5.0,6.0,6.0
1302,505.0,616.0,470.0,5.0,6.0,6.0
1303,505.0,616.0,470.0,5.0,6.0,5.0
1304,505.0,617.0,470.0,5.0,6.0,5.0
1305,506.0,617.0,470.0,4.0,6.0,6.0
1306,506.0,617.0,470.0,4.0,6.0,6.0
1307,505.0,617.0,470.0,5.0,6.0,5.0
1308,505.0,617.0,470.0,5.0,6.0,5.0
1309,505.0,616.0,469.0,4.0,6.0,5.0
1310,505.0,616.0,470.0,4.0,6.0,6.0
1311,505.0,616.0,470.0,4.0,6.0,6.0
1312,505.0,616.0,470.0,4.0,6.0,6.0
1313,506.0,617.0,470.0,4.0,6.0,6.0
1314,506.0,616.0,469.0,5.0,6.0,5.0
1315,506.0,617.0,470.0,5.0,6.0,6.0
1316,505.0,616.0,469.0,5.0,6.0,6.0
1317,505.0,616.0,470.0,4.0,6.0,6.0
1318,505.0,617.0,469.0,4.0,6.0,6.0
1319,505.0,616.0,470.0,4.0,6.0,6.0
1320,505.0,617.0,470.0,4.0,6.0,6.0
1321,505.0,616.0,470.0,4.0,6.0,6.0
1322,505.0,617.0,470.0,5.0,7.0,5.0
1323,505.0,616.0,470.0,5.0,6.0,5.0
1324,505.0,616.0,470.0,4.0,6.0,6.0
1325,506.0,617.0,470.0,4.0,7.0,6.0
1326,505.0,616.0,470.0,5.0,6.0,6.0
1327,505.0,617.0,470.0,5.0,6.0,6.0
1328,505.0,617.0,470.0,5.0,6.0,6.0
1329,506.0,617.0,470.0,5.0,6.0,5.0
1330,505.0,616.0,469.0,5.0,6.0,5.0
1331,505.0,617.0,470.0,5.0,6.0,6.0
1332,505.0,616.0,469.0,5.0,6.0,5.0
1333,505.0,616.0,469.0,5.0,6.0,5.0
1334,505.0,617.0,470.0,5.0,6.0,5.0
1335,505.0,616.0,470.0,5.0,6.0,6.0
1336,505.0,617.0,469.0,5.0,6.0,6.0
1337,505.0,616.0,470.0,4.0,6.0,5.0
1338,505.0,617.0,470.0,5.0,6.0,5.0
1339,505.0,616.0,470.0,5.0,6.0,6.0
1340,505.0,616.0,470.0,5.0,6.0,6.0
1341,505.0,617.0,470.0,5.0,6.0,6.0
1342,505.0,617.0,470.0,5.0,6.0,6.0
1343,505.0,617.0,470.0,5.0,6.0,5.0
1344,505.0,617.0,469.0,5.0,6.0,5.0
1345,505.0,617.0,470.0,5.0,6.0,5.0
1346,505.0,616.0,470.0,5.0,6.0,6.0
1347,505.0,617.0,470.0,5.0,6.0,5.0
1348,505.0,617.0,470.0,5.0,6.0,5.0
1349,505.0,617.0,469.0,5.0,6.0,6.0
1350,505.0,616.0,469.0,5.0,6.0,6.0
1351,506.0,616.0,470.0,5.0,6.0,6.0
1352,505.0,617.0,470.0,5.0,6.0,5.0
1353,505.0,616.0,470.0,4.0,6.0,6.0
1354,505.0,617.0,470.0,5.0,6.0,6.0
1355,505.0,617.0,469.0,5.0,6.0,6.0
1356,505.0,617.0,470.0,5.0,6.0,6.0
1357,505.0,616.0,470.0,4.0,6.0,6.0
1358,505.0,616.0,470.0,4.0,6.0,6.0
1359,506.0,616.0,470.0,4.0,6.0,5.0
1360,505.0,616.0,470.0,5.0,6.0,6.0
1361,505.0,616.0,470.0,5.0,5.0,6.0
1362,505.0,617.0,470.0,5.0,6.0,6.0
1363,505.0,617.0,470.0,5.0,6.0,5.0
1364,505.0,616.0,470.0,4.0,6.0,5.0
1365,505.0,617.0,469.0,4.0,6.0,6.0
1366,505.0,616.0,470.0,4.0,6.0,5.0
1367,505.0,617.0,470.0,4.0,6.0,6.0
1368,505.0,616.0,469.0,4.0,6.0,6.0
1369,505.0,617.0,470.0,4.0,6.0,6.0
1370,505.0,616.0,470.0,5.0,6.0,5.0
1371,506.0,616.0,470.0,5.0,6.0,6.0
1372,505.0,617.0,470.0,4.0,6.0,6.0
1373,506.0,617.0,470.0,5.0,6.0,6.0
1374,506.0,616.0,470.0,4.0,6.0,5.0
1375,506.0,617.0,470.0,4.0,6.0,5.0
1376,505.0,616.0,470.0,4.0,6.0,6.0
1377,505.0,616.0,470.0,5.0,7.0,6.0
1378,505.0,616.0,470.0,4.0,6.0,5.0
1379,505.0,616.0,470.0,4.0,6.0,6.0
1380,505.0,617.0,470.0,5.0,6.0,6.0
1381,505.0,616.0,470.0,4.0,6.0,5.0
1382,505.0,617.0,470.0,5.0,6.0,5.0
1383,505.0,617.0,470.0,4.0,6.0,7.0
1384,505.0,617.0,470.0,5.0,6.0,5.0
1385,505.0,616.0,470.0,4.0,6.0,5.0
1386,505.0,616.0,470.0,4.0,6.0,6.0
1387,505.0,616.0,470.0,5.0,6.0,5.0
1388,506.0,617.0,470.0,4.0,6.0,5.0
1389,505.0,616.0,470.0,4.0,6.0,5.0
1390,505.0,617.0,470.0,4.0,6.0,5.0
1391,505.0,616.0,470.0,5.0,6.0,6.0
1392,505.0,616.0,470.0,4.0,5.0,5.0
1393,505.0,616.0,470.0,4.0,6.0,5.0
1394,505.0,616.0,469.0,4.0,6.0,6.0
1395,505.0,617.0,470.0,4.0,6.0,6.0
1396,506.0,616.0,469.0,4.0,6.0,5.0
1397,505.0,617.0,470.0,4.0,6.0,5.0
1398,505.0,617.0,470.0,4.0,6.0,5.0
1399,505.0,616.0,470.0,5.0,6.0,6.0
1400,506.0,616.0,470.0,4.0,6.0,5.0
1401,505.0,616.0,470.0,4.0,6.0,5.0
1402,505.0,617.0,470.0,4.0,6.0,5.0
1403,505.0,617.0,470.0,5.0,6.0,5.0
1404,506.0,617.0,470.0,5.0,6.0,5.0
1405,505.0,616.0,470.0,5.0,6.0,5.0
1406,505.0,617.0,470.0,5.0,6.0,6.0
1407,505.0,616.0,469.0,4.0,6.0,5.0
1408,505.0,616.0,470.0,4.0,6.0,5.0
1409,505.0,616.0,470.0,4.0,6.0,6.0
1410,505.0,616.0,470.0,5.0,6.0,7.0
1411,506.0,617.0,470.0,4.0,6.0,5.0
1412,505.0,617.0,470.0,4.0,6.0,5.0
1413,505.0,617.0,470.0,5.0,6.0,5.0
1414,505.0,616.0,470.0,4.0,6.0,6.0
1415,505.0,617.0,470.0,4.0,6.0,5.0
1416,506.0,617.0,470.0,5.0,6.0,6.0
1417,505.0,616.0,470.0,5.0,6.0,5.0
1418,505.0,616.0,470.0,4.0,6.0,5.0
1419,506.0,616.0,470.0,5.0,6.0,5.0
1420,505.0,617.0,470.0,4.0,6.0,6.0
1421,506.0,617.0,470.0,4.0,6.0,5.0
1422,505.0,617.0,470.0,5.0,6.0,6.0
1423,505.0,616.0,469.0,5.0,6.0,5.0
1424,505.0,617.0,470.0,4.0,6.0,5.0
1425,506.0,616.0,470.0,5.0,6.0,5.0
1426,505.0,616.0,470.0,4.0,6.0,5.0
1427,505.0,617.0,469.0,5.0,6.0,5.0
1428,505.0,617.0,470.0,5.0,6.0,6.0
1429,506.0,616.0,470.0,4.0,6.0,6.0
1430,505.0,617.0,470.0,4.0,6.0,6.0
1431,506.0,616.0,469.0,4.0,6.0,6.0
1432,505.0,616.0,470.0,4.0,6.0,6.0
1433,505.0,616.0,469.0,4.0,6.0,6.0
1434,506.0,616.0,470.0,4.0,6.0,6.0
1435,505.0,616.0,470.0,4.0,6.0,6.0
1436,505.0,616.0,470.0,4.0,6.0,6.0
1437,506.0,616.0,470.0,5.0,6.0,6.0
1438,505.0,617.0,469.0,4.0,5.0,6.0
1439,505.0,617.0,470.0,4.0,6.0,6.0
1440,505.0,617.0,469.0,4.0,6.0,6.0
1441,505.0,616.0,469.0,4.0,5.0,5.0
1442,505.0,617.0,470.0,4.0,6.0,6.0
1443,506.0,617.0,469.0,4.0,6.0,5.0
1444,505.0,617.0,469.0,4.0,5.0,5.0
1445,505.0,617.0,470.0,4.0,5.0,6.0
1446,505.0,616.0,470.0,4.0,5.0,6.0
1447,505.0,617.0,470.0,4.0,6.0,6.0
1448,506.0,616.0,470.0,5.0,6.0,5.0
1449,505.0,617.0,470.0,4.0,5.0,5.0
1450,505.0,617.0,470.0,4.0,5.0,6.0
1451,505.0,616.0,470.0,5.0,6.0,5.0
1452,505.0,616.0,470.0,4.0,5.0,6.0
1453,505.0,616.0,470.0,4.0,6.0,5.0
1454,505.0,616.0,470.0,4.0,6.0,6.0
1455,505.0,616.0,470.0,4.0,6.0,6.0
1456,505.0,616.0,470.0,5.0,6.0,5.0
1457,505.0,617.0,470.0,4.0,6.0,5.0
1458,505.0,616.0,470.0,4.0,6.0,5.0
1459,505.0,617.0,470.0,5.0,5.0,5.0
1460,505.0,617.0,470.0,4.0,5.0,6.0
1461,505.0,616.0,470.0,5.0,5.0,6.0
1462,505.0,617.0,470.0,4.0,6.0,6.0
1463,505.0,616.0,470.0,4.0,6.0,5.0
1464,506.0,617.0,470.0,4.0,5.0,5.0
1465,505.0,617.0,469.0,4.0,6.0,6.0
1466,505.0,616.0,470.0,5.0,5.0,5.0
1467,505.0,616.0,470.0,4.0,5.0,6.0
1468,505.0,616.0,470.0,4.0,5.0,5.0
1469,505.0,617.0,469.0,4.0,5.0,6.0
1470,505.0,617.0,470.0,4.0,5.0,5.0
1471,505.0,616.0,470.0,4.0,5.0,6.0
1472,505.0,617.0,470.0,5.0,5.0,5.0
1473,505.0,617.0,470.0,4.0,5.0,6.0
1474,505.0,616.0,470.0,4.0,5.0,6.0
1475,505.0,617.0,470.0,4.0,5.0,5.0
1476,505.0,617.0,470.0,4.0,5.0,5.0
1477,505.0,616.0,470.0,4.0,5.0,5.0
1478,505.0,617.0,470.0,4.0,6.0,6.0
1479,505.0,617.0,469.0,4.0,5.0,5.0
1480,505.0,616.0,470.0,4.0,5.0,5.0
1481,505.0,617.0,470.0,4.0,5.0,6.0
1482,505.0,616.0,470.0,4.0,6.0,6.0
1483,505.0,617.0,470.0,4.0,5.0,6.0
1484,505.0,617.0,469.0,4.0,5.0,5.0
1485,505.0,617.0,470.0,4.0,5.0,6.0
1486,506.0,616.0,471.0,4.0,5.0,5.0
1487,506.0,616.0,470.0,4.0,6.0,5.0
1488,505.0,617.0,470.0,4.0,5.0,6.0
1489,505.0,617.0,470.0,4.0,5.0,6.0
1490,505.0,617.0,469.0,4.0,5.0,6.0
1491,505.0,617.0,470.0,4.0,5.0,6.0
1492,505.0,617.0,470.0,4.0,5.0,6.0
1493,505.0,617.0,470.0,4.0,5.0,5.0
1494,505.0,617.0,470.0,4.0,5.0,5.0
1495,505.0,616.0,470.0,4.0,5.0,5.0
1496,505.0,617.0,470.0,4.0,5.0,5.0
1497,505.0,617.0,469.0,4.0,5.0,5.0
1498,505.0,616.0,470.0,4.0,5.0,5.0
1499,505.0,617.0,470.0,4.0,5.0,5.0
1500,506.0,617.0,470.0,4.0,5.0,5.0
1501,505.0,616.0,469.0,4.0,5.0,5.0
1502,505.0,617.0,470.0,4.0,5.0,5.0
1503,505.0,617.0,470.0,4.0,5.0,5.0
1504,505.0,616.0,470.0,4.0,5.0,5.0
1505,505.0,616.0,470.0,4.0,5.0,5.0
1506,505.0,616.0,469.0,4.0,5.0,5.0
1507,505.0,617.0,470.0,4.0,5.0,6.0
1508,505.0,616.0,470.0,4.0,5.0,6.0
1509,505.0,616.0,470.0,4.0,5.0,5.0
1510,505.0,616.0,471.0,4.0,5.0,6.0
1511,505.0,616.0,470.0,4.0,5.0,6.0
1512,505.0,616.0,470.0,4.0,5.0,6.0
1513,505.0,616.0,470.0,4.0,5.0,5.0
1514,505.0,617.0,470.0,4.0,5.0,6.0
1515,506.0,616.0,470.0,4.0,5.0,6.0
1516,505.0,617.0,470.0,4.0,5.0,5.0
1517,505.0,617.0,470.0,4.0,5.0,5.0
1518,505.0,616.0,470.0,4.0,5.0,6.0
1519,506.0,617.0,470.0,4.0,5.0,6.0
1520,505.0,617.0,470.0,4.0,5.0,5.0
1521,506.0,616.0,470.0,4.0,5.0,6.0
1522,505.0,617.0,470.0,4.0,5.0,5.0
1523,506.0,617.0,470.0,4.0,5.0,6.0
1524,506.0,617.0,470.0,4.0,5.0,6.0
1525,505.0,616.0,470.0,4.0,5.0,6.0
1526,506.0,617.0,469.0,4.0,5.0,6.0
1527,505.0,616.0,470.0,4.0,5.0,5.0
1528,505.0,616.0,470.0,4.0,5.0,6.0
1529,505.0,617.0,469.0,4.0,5.0,6.0
1530,506.0,617.0,470.0,4.0,5.0,6.0
1531,506.0,616.0,470.0,4.0,6.0,5.0
1532,505.0,616.0,470.0,4.0,6.0,5.0
1533,505.0,616.0,469.0,4.0,6.0,6.0
1534,505.0,616.0,470.0,4.0,6.0,6.0
1535,505.0,616.0,470.0,4.0,5.0,5.0
1536,505.0,617.0,470.0,3.0,6.0,6.0
1537,506.0,617.0,470.0,4.0,6.0,6.0
1538,506.0,617.0,470.0,4.0,5.0,6.0
1539,506.0,616.0,469.0,4.0,6.0,5.0
1540,505.0,617.0,470.0,4.0,5.0,6.0
1541,506.0,617.0,470.0,3.0,6.0,6.0
1542,505.0,617.0,470.0,4.0,5.0,6.0
1543,505.0,617.0,470.0,5.0,5.0,5.0
1544,504.0,615.0,470.0,5.0,7.0,7.0
1545,506.0,617.0,470.0,5.0,8.0,7.0
1546,506.0,616.0,469.0,5.0,7.0,7.0
1547,505.0,617.0,470.0,5.0,10.0,7.0
1548,506.0,615.0,469.0,7.0,11.0,8.0
1549,505.0,616.0,470.0,7.0,10.0,8.0
1550,505.0,616.0,469.0,7.0,10.0,8.0
1551,505.0,616.0,470.0,7.0,10.0,8.0
1552,505.0,616.0,470.0,6.0,10.0,8.0
1553,505.0,616.0,470.0,6.0,10.0,8.0
1554,505.0,617.0,470.0,7.0,10.0,7.0
1555,505.0,616.0,470.0,7.0,10.0,8.0
1556,505.0,616.0,470.0,7.0,10.0,8.0
1557,505.0,616.0,470.0,6.0,10.0,8.0
1558,505.0,616.0,469.0,7.0,10.0,7.0
1559,506.0,617.0,469.0,7.0,10.0,8.0
1560,505.0,616.0,469.0,6.0,10.0,7.0
1561,505.0,617.0,470.0,6.0,10.0,8.0
1562,506.0,616.0,469.0,7.0,10.0,8.0
1563,505.0,617.0,470.0,7.0,10.0,8.0
1564,506.0,617.0,470.0,6.0,10.0,7.0
1565,506.0,617.0,470.0,6.0,10.0,8.0
1566,506.0,617.0,470.0,6.0,10.0,7.0
1567,505.0,617.0,469.0,6.0,9.0,7.0
1568,505.0,617.0,470.0,6.0,9.0,7.0
1569,505.0,617.0,470.0,6.0,9.0,7.0
1570,506.0,616.0,470.0,6.0,9.0,7.0
1571,506.0,616.0,470.0,6.0,9.0,7.0
1572,505.0,617.0,469.0,6.0,8.0,8.0
1573,505.0,617.0,470.0,5.0,9.0,7.0
1574,505.0,616.0,470.0,6.0,9.0,7.0
1575,505.0,616.0,470.0,5.0,9.0,7.0
1576,505.0,616.0,470.0,6.0,9.0,7.0
1577,505.0,616.0,470.0,6.0,9.0,7.0
1578,505.0,616.0,470.0,6.0,9.0,7.0
1579,505.0,616.0,470.0,6.0,9.0,7.0
1580,505.0,617.0,470.0,6.0,9.0,7.0
1581,505.0,616.0,470.0,6.0,9.0,6.0
1582,505.0,616.0,470.0,6.0,8.0,7.0
1583,506.0,616.0,470.0,5.0,8.0,7.0
1584,505.0,616.0,470.0,6.0,8.0,7.0
1585,506.0,617.0,470.0,6.0,9.0,7.0
1586,506.0,617.0,469.0,6.0,8.0,7.0
1587,505.0,617.0,469.0,6.0,8.0,7.0
1588,505.0,617.0,469.0,5.0,8.0,6.0
1589,505.0,617.0,470.0,6.0,8.0,7.0
1590,505.0,617.0,470.0,6.0,8.0,7.0
1591,505.0,617.0,470.0,6.0,8.0,7.0
1592,506.0,616.0,470.0,6.0,8.0,7.0
1593,506.0,616.0,470.0,5.0,8.0,7.0
1594,506.0,616.0,469.0,6.0,8.0,7.0
1595,505.0,616.0,469.0,5.0,8.0,7.0
1596,505.0,616.0,470.0,6.0,8.0,7.0
1597,505.0,616.0,470.0,5.0,8.0,6.0
1598,505.0,616.0,470.0,6.0,8.0,7.0
1599,505.0,616.0,470.0,6.0,8.0,7.0
1600,505.0,617.0,469.0,5.0,8.0,7.0
1601,505.0,617.0,469.0,5.0,8.0,7.0
1602,505.0,616.0,470.0,6.0,8.0,7.0
1603,505.0,616.0,470.0,5.0,8.0,7.0
1604,505.0,617.0,470.0,5.0,7.0,7.0
1605,505.0,617.0,469.0,5.0,7.0,7.0
1606,505.0,617.0,470.0,5.0,8.0,6.0
1607,505.0,617.0,470.0,5.0,8.0,7.0
1608,506.0,617.0,470.0,5.0,8.0,7.0
1609,506.0,617.0,469.0,5.0,7.0,7.0
1610,506.0,617.0,470.0,5.0,7.0,7.0
1611,505.0,616.0,470.0,5.0,7.0,7.0
1612,505.0,616.0,469.0,5.0,7.0,7.0
1613,505.0,616.0,470.0,4.0,7.0,6.0
1614,505.0,617.0,470.0,5.0,7.0,6.0
1615,506.0,617.0,469.0,5.0,7.0,7.0
1616,505.0,617.0,470.0,5.0,7.0,6.0
1617,505.0,617.0,470.0,5.0,7.0,6.0
1618,505.0,617.0,470.0,5.0,7.0,6.0
1619,505.0,617.0,470.0,5.0,7.0,6.0
1620,505.0,616.0,470.0,5.0,7.0,6.0
1621,505.0,616.0,470.0,5.0,7.0,6.0
1622,505.0,616.0,470.0,5.0,7.0,6.0
1623,505.0,616.0,470.0,5.0,7.0,7.0
1624,505.0,617.0,470.0,5.0,7.0,7.0
1625,505.0,617.0,470.0,5.0,7.0,6.0
1626,505.0,617.0,470.0,5.0,7.0,6.0
1627,505.0,617.0,469.0,5.0,7.0,6.0
1628,505.0,617.0,470.0,5.0,7.0,6.0
1629,505.0,616.0,470.0,5.0,7.0,6.0
1630,506.0,617.0,470.0,5.0,7.0,6.0
1631,506.0,617.0,470.0,5.0,7.0,5.0
1632,505.0,616.0,470.0,5.0,7.0,6.0
1633,505.0,617.0,469.0,5.0,7.0,6.0
1634,505.0,617.0,470.0,5.0,7.0,6.0
1635,505.0,617.0,470.0,5.0,7.0,6.0
1636,505.0,617.0,470.0,4.0,7.0,6.0
1637,506.0,617.0,470.0,5.0,7.0,6.0
1638,506.0,617.0,469.0,5.0,7.0,7.0
1639,505.0,616.0,470.0,4.0,7.0,6.0
1640,505.0,616.0,470.0,5.0,7.0,8.0
1641,505.0,617.0,470.0,5.0,7.0,6.0
1642,505.0,616.0,469.0,5.0,7.0,6.0
1643,505.0,617.0,469.0,5.0,7.0,6.0
1644,505.0,616.0,470.0,5.0,7.0,6.0
1645,505.0,616.0,470.0,5.0,6.0,6.0
1646,506.0,616.0,470.0,4.0,6.0,6.0
1647,505.0,616.0,470.0,5.0,7.0,6.0
1648,505.0,617.0,470.0,5.0,6.0,6.0
1649,505.0,617.0,470.0,5.0,7.0,6.0
1650,505.0,617.0,469.0,5.0,7.0,6.0
1651,505.0,617.0,470.0,5.0,6.0,6.0
1652,505.0,617.0,470.0,4.0,6.0,6.0
1653,505.0,616.0,470.0,4.0,6.0,5.0
1654,505.0,617.0,470.0,4.0,7.0,7.0
1655,505.0,617.0,470.0,5.0,6.0,6.0
1656,505.0,617.0,470.0,5.0,6.0,6.0
1657,505.0,617.0,470.0,5.0,6.0,6.0
1658,505.0,617.0,470.0,4.0,6.0,6.0
1659,505.0,617.0,469.0,5.0,6.0,6.0
1660,505.0,616.0,470.0,5.0,7.0,7.0
1661,506.0,617.0,470.0,5.0,6.0,6.0
1662,506.0,616.0,470.0,4.0,6.0,6.0
1663,505.0,617.0,470.0,4.0,6.0,6.0
1664,505.0,616.0,470.0,5.0,6.0,6.0
1665,505.0,616.0,469.0,5.0,6.0,6.0
1666,506.0,616.0,470.0,5.0,6.0,6.0
1667,505.0,617.0,470.0,4.0,6.0,6.0
1668,505.0,616.0,469.0,4.0,6.0,6.0
1669,505.0,617.0,470.0,5.0,6.0,6.0
1670,505.0,616.0,470.0,5.0,6.0,6.0
1671,505.0,616.0,469.0,5.0,6.0,6.0
1672,505.0,617.0,470.0,5.0,6.0,6.0
1673,505.0,616.0,469.0,5.0,6.0,6.0
1674,505.0,616.0,470.0,5.0,6.0,6.0
1675,505.0,616.0,470.0,5.0,6.0,5.0
1676,506.0,617.0,470.0,5.0,6.0,6.0
1677,505.0,616.0,470.0,5.0,6.0,6.0
1678,505.0,617.0,470.0,5.0,6.0,6.0
1679,505.0,617.0,470.0,5.0,6.0,6.0
1680,505.0,616.0,470.0,4.0,6.0,6.0
1681,505.0,616.0,470.0,4.0,6.0,6.0
1682,505.0,617.0,470.0,5.0,6.0,6.0
1683,505.0,616.0,469.0,4.0,6.0,6.0
1684,506.0,616.0,470.0,4.0,6.0,6.0
1685,505.0,617.0,470.0,5.0,7.0,6.0
1686,505.0,617.0,470.0,5.0,6.0,6.0
1687,505.0,617.0,470.0,4.0,6.0,5.0
1688,505.0,617.0,470.0,4.0,6.0,5.0
1689,505.0,616.0,470.0,4.0,6.0,5.0
1690,506.0,616.0,469.0,5.0,6.0,5.0
1691,506.0,616.0,469.0,5.0,6.0,5.0
1692,505.0,616.0,470.0,4.0,6.0,5.0
1693,505.0,617.0,470.0,5.0,6.0,5.0
1694,505.0,616.0,470.0,5.0,6.0,6.0
1695,505.0,617.0,470.0,4.0,6.0,5.0
1696,505.0,616.0,470.0,4.0,6.0,6.0
1697,505.0,616.0,470.0,4.0,6.0,6.0
1698,505.0,617.0,470.0,4.0,6.0,6.0
1699,505.0,616.0,470.0,4.0,6.0,5.0
1700,505.0,617.0,469.0,5.0,6.0,5.0
1701,505.0,616.0,469.0,4.0,6.0,6.0
1702,505.0,616.0,470.0,4.0,6.0,6.0
1703,505.0,616.0,470.0,4.0,6.0,6.0
1704,505.0,617.0,470.0,4.0,6.0,6.0
1705,505.0,617.0,470.0,5.0,6.0,6.0
1706,505.0,617.0,470.0,4.0,6.0,5.0
1707,505.0,617.0,470.0,5.0,6.0,6.0
1708,505.0,616.0,470.0,4.0,6.0,6.0
1709,505.0,616.0,470.0,4.0,6.0,6.0
1710,506.0,616.0,470.0,4.0,6.0,5.0
1711,505.0,616.0,470.0,4.0,6.0,5.0
1712,505.0,616.0,470.0,4.0,6.0,6.0
1713,505.0,617.0,470.0,5.0,6.0,6.0
1714,505.0,617.0,470.0,4.0,6.0,5.0
1715,505.0,617.0,469.0,5.0,6.0,6.0
1716,505.0,617.0,470.0,5.0,5.0,6.0
1717,505.0,616.0,470.0,4.0,6.0,5.0
1718,505.0,616.0,470.0,5.0,6.0,6.0
1719,506.0,616.0,470.0,4.0,6.0,6.0
1720,505.0,616.0,470.0,4.0,6.0,6.0
1721,506.0,617.0,470.0,4.0,6.0,6.0
1722,505.0,616.0,469.0,4.0,6.0,5.0
1723,505.0,617.0,470.0,4.0,6.0,6.0
1724,505.0,617.0,470.0,5.0,6.0,6.0
1725,505.0,617.0,470.0,4.0,6.0,5.0
1726,505.0,616.0,470.0,4.0,6.0,5.0
1727,506.0,616.0,470.0,4.0,6.0,6.0
1728,506.0,616.0,470.0,4.0,6.0,6.0
1729,506.0,616.0,470.0,4.0,6.0,6.0
1730,506.0,617.0,470.0,4.0,6.0,6.0
1731,505.0,617.0,470.0,4.0,6.0,5.0
1732,505.0,617.0,470.0,4.0,6.0,5.0
1733,505.0,616.0,469.0,4.0,6.0,5.0
1734,505.0,616.0,470.0,4.0,6.0,5.0
1735,506.0,616.0,470.0,4.0,6.0,5.0
1736,506.0,616.0,470.0,3.0,6.0,5.0
1737,505.0,616.0,470.0,4.0,6.0,5.0
1738,505.0,617.0,470.0,3.0,6.0,6.0
1739,505.0,617.0,470.0,4.0,6.0,6.0
1740,505.0,617.0,470.0,4.0,6.0,5.0
1741,505.0,617.0,470.0,4.0,6.0,5.0
1742,505.0,617.0,470.0,5.0,7.0,6.0
1743,506.0,617.0,470.0,4.0,6.0,7.0
1744,506.0,616.0,470.0,4.0,6.0,6.0
1745,505.0,616.0,470.0,4.0,6.0,6.0
1746,505.0,616.0,470.0,4.0,6.0,6.0
1747,505.0,616.0,470.0,3.0,5.0,5.0
1748,506.0,617.0,470.0,4.0,6.0,5.0
1749,505.0,617.0,470.0,4.0,6.0,5.0
1750,505.0,617.0,470.0,4.0,6.0,5.0
1751,506.0,617.0,470.0,4.0,5.0,5.0
1752,505.0,616.0,470.0,4.0,6.0,5.0
1753,505.0,616.0,470.0,5.0,6.0,5.0
1754,505.0,616.0,470.0,4.0,6.0,6.0
1755,505.0,616.0,470.0,4.0,5.0,5.0
1756,505.0,616.0,470.0,4.0,6.0,5.0
1757,505.0,617.0,470.0,4.0,6.0,6.0
1758,505.0,617.0,470.0,4.0,6.0,5.0
1759,505.0,617.0,469.0,4.0,5.0,5.0
1760,505.0,617.0,470.0,4.0,6.0,5.0
1761,505.0,616.0,470.0,4.0,6.0,5.0
1762,506.0,616.0,470.0,4.0,6.0,5.0
1763,505.0,616.0,470.0,4.0,7.0,5.0
1764,505.0,616.0,470.0,3.0,6.0,5.0
1765,506.0,617.0,470.0,5.0,5.0,5.0
1766,506.0,617.0,470.0,4.0,6.0,5.0
1767,505.0,617.0,470.0,4.0,5.0,5.0
1768,505.0,617.0,469.0,4.0,6.0,5.0
1769,505.0,617.0,470.0,4.0,6.0,5.0
1770,505.0,616.0,470.0,4.0,6.0,5.0
1771,505.0,616.0,470.0,4.0,5.0,7.0
1772,506.0,616.0,470.0,4.0,6.0,5.0
1773,505.0,616.0,470.0,5.0,6.0,5.0
1774,505.0,617.0,470.0,6.0,6.0,5.0
1775,505.0,617.0,470.0,4.0,6.0,6.0
1776,505.0,617.0,470.0,5.0,5.0,5.0
1777,505.0,617.0,469.0,5.0,6.0,5.0
1778,505.0,617.0,470.0,4.0,6.0,6.0
1779,506.0,617.0,469.0,4.0,6.0,6.0
1780,505.0,616.0,470.0,4.0,6.0,5.0
1781,506.0,616.0,470.0,3.0,6.0,5.0
1782,505.0,616.0,470.0,4.0,6.0,5.0
1783,505.0,617.0,470.0,4.0,5.0,6.0
1784,505.0,617.0,470.0,4.0,5.0,5.0
1785,505.0,617.0,470.0,4.0,6.0,5.0
1786,506.0,617.0,469.0,4.0,5.0,5.0
1787,505.0,617.0,470.0,4.0,6.0,6.0
1788,505.0,617.0,470.0,4.0,5.0,5.0
1789,506.0,616.0,470.0,4.0,6.0,5.0
1790,505.0,616.0,470.0,4.0,6.0,5.0
1791,505.0,616.0,470.0,5.0,6.0,5.0
1792,505.0,617.0,470.0,5.0,6.0,6.0
1793,505.0,617.0,470.0,4.0,6.0,5.0
1794,505.0,617.0,470.0,4.0,6.0,5.0
1795,505.0,617.0,470.0,4.0,6.0,5.0
1796,505.0,617.0,470.0,4.0,5.0,5.0
1797,505.0,617.0,470.0,4.0,5.0,6.0
1798,506.0,616.0,470.0,4.0,6.0,5.0
1799,505.0,616.0,470.0,4.0,5.0,6.0
1800,506.0,616.0,470.0,4.0,5.0,5.0
1801,505.0,616.0,470.0,4.0,5.0,5.0
1802,505.0,617.0,469.0,4.0,5.0,5.0
1803,505.0,617.0,470.0,4.0,6.0,6.0
1804,506.0,617.0,470.0,4.0,5.0,5.0
1805,505.0,617.0,470.0,4.0,5.0,6.0
1806,505.0,617.0,470.0,4.0,5.0,5.0
1807,505.0,617.0,470.0,4.0,5.0,5.0
1808,505.0,617.0,469.0,4.0,5.0,5.0
1809,505.0,616.0,470.0,4.0,5.0,5.0
1810,505.0,617.0,470.0,4.0,5.0,5.0
1811,506.0,616.0,470.0,4.0,5.0,5.0
1812,505.0,617.0,470.0,4.0,5.0,5.0
1813,505.0,617.0,469.0,4.0,6.0,5.0
1814,506.0,616.0,470.0,4.0,6.0,6.0
1815,505.0,616.0,470.0,4.0,5.0,5.0
1816,505.0,617.0,470.0,4.0,6.0,5.0
1817,505.0,617.0,470.0,3.0,5.0,5.0
1818,505.0,616.0,470.0,4.0,6.0,6.0
1819,506.0,616.0,470.0,4.0,5.0,5.0
1820,505.0,617.0,470.0,3.0,5.0,5.0
1821,505.0,617.0,470.0,4.0,6.0,5.0
1822,505.0,617.0,470.0,5.0,6.0,5.0
1823,505.0,617.0,470.0,4.0,6.0,6.0
1824,505.0,617.0,470.0,4.0,6.0,5.0
1825,505.0,617.0,469.0,5.0,6.0,6.0
1826,505.0,616.0,469.0,4.0,6.0,6.0
1827,506.0,616.0,470.0,4.0,6.0,5.0
1828,506.0,616.0,470.0,3.0,6.0,5.0
1829,505.0,616.0,470.0,4.0,6.0,5.0
1830,505.0,617.0,470.0,3.0,5.0,5.0
1831,505.0,617.0,470.0,3.0,6.0,5.0
1832,505.0,617.0,470.0,4.0,6.0,6.0
1833,506.0,617.0,470.0,4.0,6.0,5.0
1834,505.0,617.0,470.0,4.0,6.0,5.0
1835,505.0,617.0,470.0,4.0,6.0,6.0
1836,505.0,616.0,470.0,4.0,5.0,6.0
1837,505.0,616.0,470.0,4.0,5.0,6.0
1838,505.0,617.0,470.0,4.0,5.0,6.0
1839,505.0,617.0,470.0,4.0,6.0,6.0
1840,505.0,617.0,469.0,4.0,6.0,6.0
1841,506.0,617.0,469.0,4.0,6.0,5.0
1842,505.0,617.0,470.0,4.0,6.0,6.0
1843,505.0,617.0,469.0,4.0,6.0,6.0
1844,505.0,616.0,469.0,4.0,6.0,6.0
1845,505.0,617.0,470.0,4.0,6.0,5.0
1846,505.0,616.0,469.0,4.0,6.0,6.0
1847,506.0,616.0,470.0,4.0,6.0,5.0
1848,506.0,616.0,470.0,4.0,6.0,5.0
1849,506.0,616.0,470.0,4.0,5.0,5.0
1850,505.0,616.0,470.0,4.0,6.0,6.0
1851,505.0,617.0,470.0,4.0,6.0,6.0
1852,506.0,616.0,470.0,4.0,6.0,6.0
1853,506.0,617.0,470.0,4.0,6.0,6.0
1854,505.0,617.0,470.0,4.0,6.0,6.0
1855,505.0,616.0,470.0,4.0,6.0,6.0
1856,506.0,617.0,470.0,5.0,6.0,6.0
1857,505.0,616.0,470.0,4.0,6.0,6.0
1858,505.0,616.0,470.0,4.0,6.0,5.0
1859,506.0,617.0,470.0,4.0,6.0,5.0
1860,505.0,616.0,470.0,4.0,6.0,5.0
1861,505.0,616.0,470.0,4.0,6.0,6.0
1862,505.0,616.0,470.0,4.0,6.0,6.0
1863,505.0,616.0,470.0,4.0,6.0,6.0
1864,505.0,617.0,470.0,4.0,6.0,5.0
1865,505.0,617.0,470.0,4.0,5.0,6.0
1866,505.0,616.0,470.0,4.0,6.0,6.0
1867,505.0,616.0,470.0,4.0,6.0,6.0
1868,505.0,616.0,470.0,4.0,6.0,6.0
1869,505.0,617.0,470.0,4.0,6.0,5.0
1870,506.0,617.0,470.0,4.0,6.0,6.0
1871,506.0,617.0,470.0,4.0,6.0,5.0
1872,506.0,617.0,469.0,4.0,6.0,6.0
1873,505.0,617.0,470.0,4.0,6.0,6.0
1874,505.0,617.0,470.0,4.0,6.0,6.0
1875,505.0,616.0,470.0,4.0,6.0,5.0
1876,506.0,617.0,470.0,4.0,6.0,6.0
1877,506.0,617.0,469.0,4.0,6.0,6.0
1878,506.0,617.0,470.0,4.0,6.0,5.0
1879,506.0,617.0,470.0,4.0,6.0,5.0
1880,505.0,617.0,470.0,4.0,6.0,5.0
1881,505.0,617.0,470.0,4.0,6.0,5.0
1882,505.0,616.0,469.0,3.0,6.0,5.0
1883,505.0,616.0,470.0,4.0,6.0,6.0
1884,505.0,616.0,470.0,4.0,6.0,6.0
1885,505.0,616.0,470.0,4.0,5.0,5.0
1886,505.0,616.0,469.0,4.0,6.0,5.0
1887,505.0,617.0,470.0,4.0,6.0,5.0
1888,505.0,617.0,470.0,5.0,6.0,5.0
1889,505.0,616.0,470.0,4.0,6.0,6.0
1890,506.0,617.0,470.0,4.0,6.0,5.0
1891,505.0,617.0,470.0,4.0,6.0,5.0
1892,506.0,616.0,470.0,4.0,6.0,6.0
1893,505.0,617.0,469.0,4.0,6.0,5.0
1894,506.0,617.0,469.0,4.0,6.0,5.0
1895,505.0,617.0,470.0,5.0,6.0,5.0
1896,505.0,616.0,470.0,4.0,5.0,5.0
1897,505.0,617.0,470.0,4.0,6.0,6.0
1898,505.0,616.0,470.0,4.0,6.0,5.0
1899,505.0,616.0,470.0,4.0,5.0,5.0
1900,506.0,616.0,470.0,4.0,5.0,5.0
1901,505.0,616.0,470.0,4.0,5.0,5.0
1902,505.0,617.0,470.0,4.0,5.0,5.0
1903,505.0,616.0,470.0,4.0,5.0,5.0
1904,505.0,616.0,470.0,4.0,6.0,5.0
1905,505.0,616.0,470.0,4.0,6.0,5.0
1906,505.0,616.0,469.0,4.0,6.0,5.0
1907,506.0,616.0,470.0,4.0,6.0,5.0
1908,505.0,617.0,470.0,4.0,6.0,5.0
1909,505.0,617.0,470.0,4.0,6.0,5.0
1910,505.0,617.0,470.0,4.0,6.0,5.0
1911,505.0,617.0,470.0,4.0,6.0,6.0
1912,505.0,617.0,470.0,4.0,5.0,5.0
1913,506.0,617.0,469.0,4.0,5.0,5.0
1914,505.0,616.0,470.0,5.0,6.0,5.0
1915,506.0,617.0,469.0,4.0,6.0,5.0
1916,505.0,616.0,470.0,4.0,5.0,5.0
1917,505.0,617.0,469.0,4.0,6.0,5.0
1918,505.0,616.0,470.0,4.0,6.0,6.0
1919,505.0,617.0,469.0,4.0,6.0,5.0
1920,505.0,616.0,470.0,4.0,6.0,5.0
1921,505.0,617.0,470.0,4.0,6.0,5.0
1922,505.0,617.0,470.0,4.0,6.0,6.0
1923,505.0,616.0,470.0,4.0,6.0,6.0
1924,506.0,616.0,470.0,4.0,6.0,5.0
1925,505.0,616.0,469.0,4.0,6.0,5.0
1926,505.0,617.0,470.0,4.0,5.0,6.0
1927,505.0,617.0,470.0,4.0,5.0,5.0
1928,505.0,617.0,470.0,4.0,6.0,6.0
1929,505.0,617.0,470.0,4.0,6.0,5.0
1930,505.0,616.0,470.0,4.0,6.0,6.0
1931,506.0,617.0,470.0,4.0,6.0,5.0
1932,506.0,616.0,470.0,4.0,6.0,6.0
1933,506.0,616.0,470.0,4.0,6.0,6.0
1934,506.0,617.0,470.0,4.0,6.0,6.0
1935,506.0,616.0,470.0,4.0,6.0,5.0
1936,506.0,617.0,470.0,4.0,6.0,6.0
1937,506.0,617.0,470.0,4.0,6.0,6.0
1938,506.0,617.0,470.0,5.0,6.0,7.0
1939,504.0,617.0,470.0,5.0,7.0,7.0
1940,506.0,616.0,470.0,6.0,7.0,7.0
1941,505.0,616.0,470.0,5.0,7.0,7.0
1942,505.0,616.0,470.0,6.0,8.0,9.0
1943,504.0,615.0,469.0,7.0,8.0,10.0
1944,505.0,616.0,469.0,7.0,8.0,10.0
1945,505.0,617.0,470.0,7.0,8.0,10.0
1946,505.0,617.0,469.0,7.0,8.0,10.0
1947,505.0,617.0,470.0,7.0,8.0,9.0
1948,505.0,616.0,469.0,7.0,8.0,10.0
1949,505.0,616.0,470.0,7.0,8.0,10.0
1950,505.0,616.0,470.0,7.0,8.0,10.0
1951,505.0,616.0,470.0,7.0,8.0,10.0
1952,505.0,617.0,470.0,7.0,8.0,10.0
1953,505.0,616.0,470.0,7.0,7.0,10.0
1954,505.0,617.0,470.0,7.0,8.0,10.0
1955,505.0,617.0,470.0,6.0,8.0,9.0
1956,505.0,617.0,470.0,7.0,8.0,9.0
1957,505.0,617.0,470.0,7.0,8.0,9.0
1958,505.0,616.0,470.0,7.0,8.0,9.0
1959,506.0,616.0,470.0,7.0,7.0,9.0
1960,506.0,616.0,470.0,7.0,8.0,9.0
1961,505.0,617.0,470.0,6.0,7.0,9.0
1962,506.0,617.0,470.0,7.0,7.0,9.0
1963,505.0,617.0,470.0,6.0,7.0,9.0
1964,505.0,617.0,470.0,7.0,7.0,8.0
1965,505.0,617.0,470.0,7.0,7.0,9.0
1966,505.0,616.0,470.0,6.0,7.0,9.0
1967,505.0,617.0,470.0,6.0,7.0,9.0
1968,505.0,616.0,469.0,6.0,7.0,8.0
1969,505.0,616.0,470.0,6.0,7.0,8.0
1970,505.0,617.0,470.0,6.0,7.0,9.0
1971,505.0,616.0,470.0,6.0,7.0,8.0
1972,506.0,617.0,470.0,6.0,7.0,8.0
1973,506.0,617.0,470.0,6.0,7.0,8.0
1974,505.0,616.0,470.0,6.0,7.0,9.0
1975,505.0,617.0,470.0,5.0,7.0,8.0
1976,506.0,617.0,470.0,6.0,7.0,8.0
1977,505.0,617.0,469.0,7.0,8.0,9.0
1978,505.0,617.0,470.0,7.0,8.0,9.0
1979,505.0,617.0,470.0,7.0,8.0,9.0
1980,505.0,616.0,470.0,7.0,8.0,9.0
1981,504.0,615.0,470.0,7.0,10.0,11.0
1982,505.0,617.0,470.0,7.0,11.0,12.0
1983,504.0,616.0,469.0,9.0,11.0,12.0
1984,505.0,616.0,469.0,9.0,11.0,12.0
1985,505.0,616.0,469.0,9.0,11.0,12.0
1986,505.0,617.0,470.0,9.0,11.0,12.0
1987,505.0,616.0,470.0,9.0,11.0,11.0
1988,505.0,617.0,469.0,8.0,11.0,12.0
1989,505.0,616.0,470.0,9.0,11.0,11.0
1990,506.0,617.0,470.0,8.0,10.0,11.0
1991,505.0,617.0,470.0,8.0,11.0,11.0
1992,505.0,617.0,470.0,8.0,10.0,11.0
1993,506.0,616.0,469.0,9.0,10.0,11.0
1994,505.0,617.0,469.0,8.0,10.0,11.0
1995,505.0,617.0,470.0,9.0,10.0,11.0
1996,505.0,616.0,470.0,8.0,10.0,11.0
1997,506.0,617.0,470.0,8.0,11.0,10.0
1998,505.0,617.0,470.0,8.0,10.0,10.0
1999,506.0,616.0,469.0,7.0,10.0,11.0
2000,506.0,617.0,470.0,7.0,10.0,10.0
2001,506.0,616.0,470.0,8.0,11.0,10.0
2002,506.0,617.0,469.0,8.0,10.0,10.0
2003,505.0,617.0,470.0,7.0,10.0,10.0
2004,505.0,617.0,470.0,7.0,10.0,10.0
2005,505.0,617.0,470.0,7.0,10.0,10.0
2006,505.0,616.0,470.0,8.0,10.0,10.0
2007,506.0,617.0,470.0,7.0,9.0,9.0
2008,505.0,616.0,470.0,7.0,9.0,10.0
2009,505.0,616.0,470.0,8.0,9.0,10.0
2010,505.0,616.0,470.0,8.0,9.0,10.0
2011,505.0,616.0,470.0,7.0,9.0,10.0
2012,506.0,617.0,470.0,7.0,9.0,9.0
2013,505.0,617.0,470.0,7.0,9.0,9.0
2014,505.0,617.0,470.0,7.0,9.0,9.0
2015,505.0,616.0,470.0,7.0,9.0,9.0
2016,505.0,616.0,470.0,7.0,9.0,9.0
2017,505.0,617.0,470.0,6.0,9.0,9.0
2018,506.0,617.0,470.0,7.0,9.0,9.0
2019,505.0,617.0,470.0,7.0,8.0,10.0
2020,505.0,617.0,470.0,7.0,9.0,9.0
2021,505.0,616.0,470.0,7.0,9.0,9.0
2022,506.0,617.0,470.0,6.0,8.0,9.0
2023,505.0,616.0,470.0,7.0,8.0,9.0
2024,504.0,617.0,470.0,6.0,8.0,9.0
2025,505.0,616.0,470.0,7.0,8.0,9.0
2026,505.0,616.0,470.0,7.0,8.0,9.0
2027,506.0,616.0,470.0,7.0,8.0,9.0
2028,505.0,616.0,469.0,6.0,8.0,8.0
2029,505.0,616.0,470.0,7.0,8.0,9.0
2030,505.0,616.0,470.0,6.0,8.0,8.0
2031,505.0,616.0,470.0,7.0,8.0,9.0
2032,505.0,617.0,470.0,7.0,8.0,9.0
2033,505.0,617.0,470.0,7.0,8.0,9.0
2034,505.0,617.0,470.0,7.0,8.0,9.0
2035,506.0,616.0,470.0,7.0,8.0,9.0
2036,506.0,617.0,470.0,7.0,8.0,9.0
2037,505.0,617.0,470.0,7.0,8.0,8.0
2038,505.0,617.0,470.0,8.0,7.0,8.0
2039,505.0,617.0,470.0,6.0,8.0,9.0
2040,505.0,617.0,470.0,7.0,8.0,8.0
2041,505.0,617.0,470.0,6.0,8.0,8.0
2042,505.0,616.0,469.0,6.0,8.0,9.0
2043,506.0,616.0,470.0,6.0,7.0,8.0
2044,506.0,616.0,470.0,6.0,8.0,8.0
2045,506.0,616.0,470.0,6.0,7.0,8.0
2046,505.0,617.0,470.0,6.0,8.0,8.0
2047,505.0,617.0,470.0,6.0,7.0,8.0
2048,506.0,617.0,470.0,6.0,7.0,9.0
2049,505.0,617.0,470.0,6.0,8.0,8.0
2050,506.0,616.0,470.0,6.0,8.0,9.0
2051,505.0,616.0,470.0,6.0,7.0,8.0
2052,505.0,616.0,470.0,7.0,7.0,9.0
2053,506.0,616.0,469.0,6.0,8.0,8.0
2054,505.0,616.0,470.0,6.0,8.0,8.0
2055,505.0,617.0,470.0,6.0,7.0,8.0
2056,505.0,616.0,470.0,6.0,8.0,8.0
2057,505.0,617.0,470.0,6.0,7.0,8.0
2058,506.0,617.0,470.0,5.0,7.0,8.0
2059,506.0,616.0,470.0,6.0,7.0,7.0
2060,506.0,617.0,470.0,6.0,7.0,8.0
2061,506.0,617.0,470.0,6.0,7.0,8.0
2062,505.0,616.0,470.0,6.0,7.0,8.0
2063,505.0,616.0,470.0,6.0,7.0,8.0
2064,505.0,617.0,470.0,6.0,7.0,8.0
2065,505.0,617.0,469.0,6.0,7.0,8.0
2066,505.0,616.0,470.0,5.0,7.0,7.0
2067,506.0,616.0,470.0,6.0,7.0,7.0
2068,505.0,616.0,470.0,6.0,7.0,8.0
2069,505.0,616.0,470.0,6.0,7.0,8.0
2070,505.0,616.0,469.0,5.0,7.0,7.0
2071,505.0,617.0,470.0,5.0,7.0,7.0
2072,505.0,617.0,470.0,6.0,7.0,8.0
2073,505.0,617.0,470.0,6.0,7.0,7.0
2074,505.0,616.0,470.0,5.0,7.0,7.0
2075,505.0,617.0,470.0,4.0,7.0,7.0
2076,505.0,617.0,470.0,5.0,7.0,7.0
2077,505.0,617.0,470.0,6.0,7.0,7.0
2078,505.0,617.0,470.0,5.0,7.0,7.0
2079,505.0,616.0,470.0,5.0,6.0,8.0
2080,505.0,616.0,470.0,6.0,6.0,7.0
2081,506.0,616.0,470.0,6.0,7.0,7.0
2082,506.0,616.0,470.0,5.0,6.0,7.0
2083,506.0,616.0,470.0,5.0,7.0,7.0
2084,505.0,617.0,470.0,5.0,7.0,7.0
2085,505.0,616.0,470.0,5.0,7.0,7.0
2086,505.0,616.0,470.0,5.0,6.0,7.0
2087,505.0,617.0,470.0,5.0,6.0,7.0
2088,505.0,616.0,470.0,5.0,6.0,7.0
2089,505.0,616.0,470.0,5.0,6.0,7.0
2090,506.0,616.0,470.0,5.0,7.0,7.0
2091,505.0,616.0,470.0,5.0,6.0,7.0
2092,505.0,616.0,470.0,5.0,6.0,7.0
2093,506.0,617.0,470.0,5.0,6.0,7.0
2094,505.0,617.0,469.0,5.0,6.0,7.0
2095,505.0,617.0,470.0,5.0,6.0,7.0
2096,506.0,617.0,470.0,5.0,6.0,7.0
2097,505.0,617.0,470.0,5.0,6.0,7.0
2098,505.0,616.0,470.0,5.0,6.0,6.0
2099,505.0,616.0,470.0,5.0,6.0,6.0
2100,505.0,616.0,470.0,5.0,6.0,7.0
2101,505.0,616.0,470.0,5.0,6.0,7.0
2102,505.0,617.0,469.0,5.0,6.0,7.0
2103,505.0,617.0,470.0,5.0,6.0,7.0
2104,505.0,617.0,470.0,5.0,6.0,6.0
2105,505.0,617.0,470.0,5.0,6.0,6.0
2106,505.0,617.0,470.0,5.0,6.0,6.0
2107,505.0,616.0,470.0,5.0,6.0,6.0
2108,505.0,617.0,470.0,5.0,6.0,7.0
2109,505.0,616.0,470.0,5.0,6.0,7.0
2110,505.0,617.0,470.0,5.0,6.0,7.0
2111,505.0,617.0,470.0,5.0,6.0,6.0
2112,505.0,617.0,470.0,4.0,6.0,6.0
2113,506.0,616.0,470.0,5.0,6.0,6.0
2114,505.0,616.0,470.0,5.0,6.0,7.0
2115,505.0,617.0,469.0,5.0,6.0,7.0
2116,505.0,616.0,469.0,5.0,6.0,6.0
2117,505.0,616.0,470.0,5.0,6.0,6.0
2118,506.0,617.0,470.0,5.0,6.0,6.0
2119,505.0,617.0,470.0,5.0,6.0,6.0
2120,505.0,617.0,469.0,4.0,6.0,6.0
2121,505.0,617.0,470.0,5.0,6.0,6.0
2122,505.0,617.0,470.0,5.0,6.0,7.0
2123,505.0,616.0,470.0,4.0,6.0,6.0
2124,506.0,616.0,470.0,5.0,6.0,6.0
2125,505.0,616.0,469.0,5.0,6.0,6.0
2126,505.0,617.0,470.0,4.0,6.0,6.0
2127,505.0,617.0,470.0,5.0,6.0,6.0
2128,505.0,617.0,470.0,5.0,6.0,6.0
2129,505.0,617.0,470.0,5.0,7.0,6.0
2130,505.0,616.0,470.0,5.0,7.0,6.0
2131,505.0,617.0,470.0,5.0,7.0,6.0
2132,505.0,616.0,470.0,5.0,7.0,6.0
2133,505.0,616.0,470.0,4.0,6.0,6.0
2134,505.0,616.0,470.0,4.0,7.0,6.0
2135,505.0,617.0,469.0,5.0,6.0,6.0
2136,505.0,617.0,470.0,4.0,7.0,6.0
2137,505.0,616.0,470.0,4.0,6.0,6.0
2138,505.0,617.0,470.0,4.0,7.0,6.0
2139,505.0,616.0,470.0,5.0,7.0,6.0
2140,505.0,616.0,470.0,5.0,7.0,6.0
2141,505.0,616.0,470.0,4.0,6.0,6.0
2142,505.0,616.0,470.0,5.0,7.0,6.0
2143,505.0,617.0,469.0,5.0,6.0,6.0
2144,505.0,617.0,470.0,4.0,6.0,6.0
2145,505.0,617.0,470.0,5.0,7.0,6.0
2146,505.0,617.0,470.0,5.0,7.0,6.0
2147,505.0,616.0,470.0,5.0,6.0,6.0
2148,505.0,616.0,470.0,4.0,6.0,6.0
2149,505.0,616.0,470.0,4.0,7.0,6.0
2150,505.0,616.0,470.0,4.0,6.0,6.0
2151,505.0,616.0,470.0,4.0,7.0,5.0
2152,505.0,617.0,470.0,5.0,7.0,6.0
2153,505.0,617.0,470.0,5.0,6.0,6.0
2154,505.0,616.0,470.0,4.0,6.0,5.0
2155,505.0,617.0,470.0,5.0,6.0,5.0
2156,505.0,617.0,470.0,4.0,6.0,6.0
2157,506.0,616.0,470.0,4.0,6.0,6.0
2158,505.0,616.0,470.0,5.0,6.0,5.0
2159,505.0,616.0,470.0,5.0,6.0,6.0
2160,505.0,616.0,470.0,5.0,6.0,6.0
2161,505.0,616.0,470.0,5.0,6.0,6.0
2162,505.0,617.0,470.0,4.0,6.0,6.0
2163,505.0,617.0,470.0,4.0,6.0,6.0
2164,506.0,617.0,470.0,4.0,6.0,6.0
2165,505.0,617.0,470.0,4.0,6.0,6.0
2166,505.0,616.0,470.0,4.0,6.0,6.0
2167,506.0,617.0,470.0,5.0,6.0,5.0
2168,505.0,617.0,470.0,4.0,6.0,6.0
2169,505.0,617.0,470.0,4.0,6.0,6.0
2170,505.0,617.0,470.0,5.0,6.0,6.0
2171,505.0,616.0,470.0,4.0,6.0,6.0
2172,505.0,617.0,470.0,4.0,6.0,6.0
2173,505.0,617.0,470.0,4.0,5.0,6.0
2174,505.0,616.0,470.0,4.0,6.0,6.0
2175,505.0,616.0,470.0,5.0,7.0,6.0
2176,505.0,616.0,470.0,4.0,6.0,6.0
2177,505.0,616.0,469.0,5.0,6.0,6.0
2178,505.0,617.0,470.0,4.0,6.0,6.0
2179,505.0,617.0,470.0,4.0,6.0,6.0
2180,505.0,617.0,470.0,4.0,6.0,6.0
2181,505.0,617.0,470.0,4.0,6.0,6.0
2182,505.0,617.0,470.0,4.0,6.0,5.0
2183,505.0,617.0,470.0,5.0,6.0,6.0
2184,506.0,616.0,470.0,4.0,6.0,6.0
2185,505.0,616.0,469.0,4.0,6.0,5.0
2186,506.0,617.0,470.0,5.0,6.0,6.0
2187,506.0,617.0,469.0,4.0,6.0,6.0
2188,506.0,617.0,470.0,5.0,6.0,6.0
2189,505.0,617.0,470.0,5.0,6.0,6.0
2190,505.0,616.0,470.0,4.0,6.0,6.0
2191,505.0,617.0,470.0,5.0,6.0,6.0
2192,505.0,616.0,470.0,5.0,6.0,6.0
2193,505.0,617.0,470.0,4.0,6.0,5.0
2194,505.0,617.0,470.0,4.0,6.0,6.0
2195,505.0,617.0,470.0,5.0,5.0,5.0
2196,506.0,617.0,470.0,5.0,6.0,6.0
2197,505.0,616.0,470.0,4.0,6.0,6.0
2198,506.0,617.0,470.0,5.0,6.0,6.0
2199,505.0,616.0,470.0,5.0,6.0,5.0
2200,505.0,616.0,470.0,4.0,6.0,6.0
2201,505.0,616.0,470.0,4.0,6.0,6.0
2202,505.0,617.0,470.0,4.0,6.0,6.0
2203,506.0,617.0,469.0,4.0,6.0,6.0
2204,505.0,616.0,470.0,5.0,6.0,6.0
2205,505.0,616.0,470.0,4.0,6.0,6.0
2206,505.0,617.0,470.0,4.0,6.0,5.0
2207,505.0,616.0,470.0,4.0,6.0,5.0
2208,505.0,616.0,469.0,4.0,6.0,5.0
2209,506.0,616.0,470.0,4.0,6.0,5.0
2210,506.0,616.0,470.0,4.0,6.0,5.0
2211,505.0,617.0,470.0,4.0,6.0,6.0
2212,505.0,617.0,469.0,4.0,6.0,6.0
2213,505.0,617.0,470.0,4.0,6.0,6.0
2214,505.0,617.0,470.0,4.0,6.0,5.0
2215,505.0,617.0,470.0,4.0,6.0,6.0
2216,506.0,617.0,469.0,4.0,6.0,6.0
2217,506.0,617.0,470.0,4.0,5.0,6.0
2218,505.0,617.0,470.0,4.0,6.0,6.0
2219,505.0,617.0,470.0,4.0,6.0,6.0
2220,505.0,616.0,470.0,4.0,6.0,5.0
2221,505.0,616.0,470.0,5.0,6.0,5.0
2222,505.0,616.0,470.0,4.0,5.0,5.0
2223,505.0,616.0,469.0,4.0,6.0,5.0
2224,505.0,616.0,470.0,4.0,6.0,6.0
2225,505.0,616.0,470.0,4.0,6.0,5.0
2226,505.0,617.0,470.0,5.0,5.0,5.0
2227,505.0,617.0,470.0,4.0,5.0,6.0
2228,505.0,616.0,470.0,5.0,6.0,5.0
2229,505.0,616.0,470.0,4.0,5.0,5.0
2230,505.0,617.0,470.0,5.0,5.0,6.0
2231,505.0,616.0,470.0,4.0,5.0,6.0
2232,506.0,617.0,470.0,5.0,5.0,6.0
2233,505.0,617.0,470.0,4.0,5.0,5.0
2234,505.0,616.0,469.0,4.0,5.0,6.0
2235,505.0,617.0,470.0,4.0,6.0,5.0
2236,505.0,617.0,470.0,4.0,5.0,6.0
2237,505.0,617.0,470.0,4.0,5.0,5.0
2238,505.0,616.0,469.0,4.0,5.0,6.0
2239,505.0,617.0,470.0,5.0,5.0,6.0
2240,506.0,616.0,470.0,5.0,5.0,6.0
2241,505.0,617.0,470.0,4.0,5.0,6.0
2242,505.0,617.0,470.0,4.0,5.0,6.0
2243,505.0,616.0,470.0,4.0,5.0,6.0
2244,506.0,616.0,470.0,4.0,5.0,5.0
2245,505.0,616.0,470.0,4.0,6.0,5.0
2246,506.0,617.0,470.0,4.0,5.0,6.0
2247,505.0,617.0,470.0,4.0,5.0,5.0
2248,505.0,616.0,469.0,4.0,5.0,5.0
2249,505.0,617.0,470.0,4.0,5.0,6.0
2250,505.0,617.0,470.0,5.0,5.0,6.0
2251,505.0,617.0,469.0,4.0,5.0,5.0
2252,505.0,616.0,469.0,5.0,6.0,5.0
2253,506.0,616.0,470.0,5.0,5.0,5.0
2254,506.0,616.0,470.0,4.0,5.0,5.0
2255,506.0,617.0,470.0,4.0,5.0,5.0
2256,505.0,616.0,470.0,5.0,5.0,5.0
2257,506.0,616.0,470.0,4.0,5.0,6.0
2258,506.0,617.0,470.0,4.0,5.0,5.0
2259,505.0,616.0,469.0,4.0,5.0,5.0
2260,505.0,617.0,470.0,5.0,6.0,6.0
2261,506.0,616.0,470.0,4.0,5.0,6.0
2262,506.0,617.0,469.0,4.0,5.0,6.0
2263,506.0,617.0,470.0,4.0,5.0,6.0
2264,505.0,616.0,470.0,4.0,5.0,6.0
2265,505.0,617.0,469.0,4.0,5.0,5.0
2266,505.0,617.0,470.0,4.0,5.0,5.0
2267,505.0,616.0,469.0,4.0,5.0,5.0
2268,505.0,617.0,469.0,4.0,5.0,5.0
2269,506.0,616.0,469.0,5.0,6.0,5.0
2270,506.0,616.0,470.0,4.0,4.0,5.0
2271,505.0,617.0,470.0,5.0,6.0,5.0
2272,505.0,616.0,470.0,4.0,6.0,5.0
2273,505.0,616.0,470.0,6.0,5.0,5.0
2274,505.0,617.0,470.0,4.0,5.0,5.0
2275,505.0,616.0,470.0,4.0,5.0,5.0
2276,505.0,616.0,470.0,5.0,5.0,6.0
2277,505.0,616.0,470.0,4.0,5.0,6.0
2278,505.0,616.0,470.0,5.0,6.0,6.0
2279,505.0,616.0,470.0,4.0,5.0,6.0
2280,506.0,616.0,470.0,4.0,5.0,5.0
2281,505.0,617.0,471.0,4.0,5.0,6.0
2282,505.0,616.0,470.0,4.0,5.0,5.0
2283,505.0,617.0,470.0,4.0,6.0,6.0
2284,505.0,617.0,470.0,4.0,5.0,6.0
2285,505.0,617.0,470.0,4.0,5.0,5.0
2286,505.0,617.0,470.0,4.0,6.0,5.0
2287,505.0,616.0,470.0,4.0,6.0,6.0
2288,505.0,616.0,470.0,4.0,6.0,5.0
2289,505.0,617.0,470.0,4.0,6.0,5.0
2290,505.0,616.0,470.0,4.0,6.0,6.0
2291,506.0,616.0,470.0,4.0,6.0,6.0
2292,505.0,617.0,470.0,4.0,6.0,6.0
2293,505.0,617.0,470.0,5.0,6.0,6.0
2294,505.0,617.0,470.0,4.0,6.0,5.0
2295,505.0,617.0,469.0,4.0,6.0,6.0
2296,505.0,616.0,470.0,5.0,6.0,6.0
2297,505.0,616.0,470.0,4.0,6.0,5.0
2298,506.0,616.0,470.0,4.0,6.0,6.0
2299,505.0,616.0,469.0,4.0,6.0,5.0
2300,506.0,617.0,470.0,4.0,6.0,5.0
2301,505.0,617.0,470.0,4.0,6.0,5.0
2302,505.0,616.0,470.0,4.0,6.0,5.0
2303,506.0,616.0,470.0,4.0,6.0,5.0
2304,506.0,616.0,469.0,5.0,6.0,5.0
2305,506.0,617.0,470.0,4.0,6.0,5.0
2306,506.0,616.0,470.0,4.0,6.0,5.0
2307,505.0,616.0,470.0,5.0,6.0,6.0
2308,505.0,616.0,470.0,4.0,6.0,5.0
2309,505.0,617.0,470.0,5.0,6.0,6.0
2310,506.0,617.0,470.0,4.0,6.0,5.0
2311,505.0,617.0,470.0,4.0,6.0,5.0
2312,505.0,617.0,470.0,4.0,6.0,5.0
2313,505.0,617.0,470.0,4.0,6.0,5.0
2314,505.0,617.0,470.0,4.0,6.0,6.0
2315,505.0,616.0,470.0,4.0,6.0,5.0
2316,505.0,617.0,470.0,4.0,6.0,5.0
2317,505.0,616.0,470.0,4.0,6.0,6.0
2318,505.0,617.0,470.0,4.0,5.0,6.0
2319,505.0,616.0,470.0,4.0,6.0,5.0
2320,505.0,617.0,470.0,4.0,6.0,6.0
2321,506.0,616.0,470.0,5.0,6.0,6.0
2322,505.0,616.0,470.0,4.0,6.0,6.0
2323,505.0,616.0,470.0,4.0,6.0,5.0
2324,505.0,617.0,470.0,5.0,6.0,5.0
2325,505.0,617.0,470.0,4.0,6.0,5.0
2326,505.0,617.0,470.0,4.0,6.0,6.0
2327,506.0,616.0,470.0,4.0,6.0,5.0
2328,505.0,617.0,470.0,5.0,6.0,6.0
2329,506.0,616.0,470.0,4.0,6.0,6.0
2330,506.0,616.0,470.0,5.0,6.0,6.0
2331,505.0,617.0,470.0,5.0,6.0,5.0
2332,505.0,616.0,469.0,4.0,6.0,6.0
2333,505.0,617.0,470.0,5.0,6.0,5.0
2334,505.0,617.0,470.0,4.0,6.0,5.0
2335,505.0,617.0,470.0,4.0,6.0,6.0
2336,506.0,616.0,470.0,4.0,6.0,6.0
2337,505.0,616.0,470.0,4.0,5.0,6.0
2338,505.0,617.0,470.0,4.0,6.0,6.0
2339,505.0,616.0,470.0,4.0,5.0,6.0
2340,505.0,617.0,470.0,4.0,6.0,6.0
2341,505.0,616.0,470.0,5.0,5.0,7.0
2342,505.0,616.0,470.0,4.0,5.0,6.0
2343,505.0,617.0,469.0,4.0,5.0,6.0
2344,505.0,617.0,470.0,4.0,5.0,6.0
2345,506.0,616.0,470.0,4.0,5.0,6.0
2346,505.0,617.0,469.0,5.0,6.0,6.0
2347,505.0,617.0,470.0,5.0,6.0,6.0
2348,505.0,617.0,470.0,4.0,5.0,5.0
2349,505.0,617.0,470.0,4.0,6.0,5.0
2350,505.0,617.0,470.0,4.0,6.0,5.0
2351,505.0,617.0,470.0,5.0,6.0,6.0
2352,506.0,617.0,470.0,4.0,6.0,6.0
2353,505.0,617.0,469.0,4.0,6.0,6.0
2354,505.0,617.0,470.0,4.0,6.0,6.0
2355,505.0,616.0,470.0,4.0,6.0,6.0
2356,505.0,616.0,469.0,4.0,6.0,5.0
2357,505.0,617.0,470.0,4.0,6.0,6.0
2358,505.0,616.0,469.0,4.0,6.0,5.0
2359,505.0,617.0,469.0,4.0,6.0,5.0
2360,505.0,616.0,470.0,5.0,6.0,5.0
2361,505.0,616.0,470.0,4.0,6.0,5.0
2362,505.0,616.0,470.0,4.0,6.0,5.0
2363,505.0,616.0,470.0,3.0,6.0,6.0
2364,505.0,616.0,470.0,4.0,6.0,5.0
2365,505.0,617.0,470.0,4.0,6.0,6.0
2366,505.0,617.0,469.0,4.0,6.0,6.0
2367,505.0,617.0,469.0,4.0,6.0,6.0
2368,505.0,617.0,470.0,4.0,6.0,6.0
2369,505.0,616.0,470.0,4.0,6.0,5.0
2370,505.0,616.0,470.0,4.0,6.0,6.0
2371,505.0,616.0,470.0,4.0,6.0,6.0
2372,505.0,617.0,470.0,3.0,6.0,5.0
2373,505.0,616.0,470.0,4.0,6.0,6.0
2374,505.0,616.0,470.0,4.0,6.0,6.0
2375,506.0,616.0,470.0,5.0,6.0,5.0
2376,505.0,617.0,470.0,4.0,5.0,6.0
2377,505.0,617.0,470.0,4.0,6.0,6.0
2378,505.0,617.0,470.0,4.0,5.0,5.0
2379,505.0,617.0,470.0,4.0,5.0,5.0
2380,506.0,617.0,470.0,4.0,6.0,7.0
2381,506.0,616.0,470.0,3.0,6.0,6.0
2382,506.0,616.0,470.0,4.0,6.0,6.0
2383,506.0,616.0,470.0,4.0,6.0,6.0
2384,505.0,617.0,470.0,4.0,6.0,6.0
2385,505.0,617.0,470.0,4.0,6.0,6.0
2386,505.0,616.0,470.0,4.0,6.0,6.0
2387,505.0,616.0,470.0,3.0,6.0,6.0
2388,505.0,617.0,470.0,4.0,6.0,6.0
2389,505.0,616.0,470.0,4.0,6.0,6.0
2390,506.0,617.0,470.0,4.0,6.0,6.0
2391,505.0,616.0,470.0,4.0,6.0,6.0
2392,505.0,616.0,470.0,4.0,6.0,6.0
2393,505.0,616.0,470.0,4.0,6.0,6.0
2394,505.0,616.0,470.0,4.0,6.0,6.0
2395,505.0,616.0,470.0,4.0,6.0,6.0
2396,505.0,616.0,470.0,4.0,6.0,6.0
2397,505.0,616.0,469.0,4.0,6.0,6.0
2398,506.0,617.0,470.0,4.0,6.0,6.0
2399,505.0,617.0,469.0,4.0,6.0,6.0
2400,505.0,616.0,470.0,4.0,6.0,6.0
2401,505.0,617.0,470.0,4.0,6.0,6.0
2402,505.0,617.0,470.0,4.0,5.0,5.0
2403,506.0,616.0,472.0,4.0,6.0,6.0
2404,506.0,617.0,469.0,4.0,6.0,6.0
2405,506.0,617.0,470.0,4.0,6.0,6.0
2406,505.0,617.0,469.0,4.0,6.0,5.0
2407,505.0,617.0,470.0,4.0,6.0,6.0
2408,505.0,617.0,470.0,4.0,6.0,5.0
2409,505.0,617.0,470.0,5.0,6.0,5.0
2410,505.0,617.0,470.0,4.0,6.0,5.0
2411,505.0,616.0,470.0,4.0,6.0,6.0
2412,505.0,616.0,470.0,4.0,6.0,6.0
2413,506.0,616.0,470.0,4.0,6.0,5.0
2414,505.0,616.0,470.0,4.0,6.0,5.0
2415,505.0,616.0,470.0,4.0,6.0,6.0
2416,505.0,617.0,469.0,4.0,6.0,6.0
2417,505.0,617.0,470.0,4.0,6.0,6.0
2418,505.0,617.0,470.0,4.0,6.0,6.0
2419,505.0,616.0,470.0,4.0,6.0,5.0
2420,505.0,617.0,469.0,4.0,6.0,5.0
2421,505.0,617.0,470.0,4.0,6.0,5.0
2422,505.0,617.0,470.0,4.0,6.0,5.0
2423,505.0,617.0,470.0,4.0,6.0,5.0
2424,506.0,617.0,470.0,5.0,6.0,5.0
2425,505.0,617.0,470.0,4.0,6.0,5.0
2426,505.0,617.0,469.0,4.0,6.0,5.0
2427,505.0,616.0,470.0,4.0,6.0,5.0
2428,505.0,617.0,470.0,4.0,6.0,5.0
2429,505.0,616.0,470.0,5.0,6.0,5.0
2430,505.0,616.0,470.0,5.0,6.0,5.0
2431,505.0,616.0,469.0,4.0,6.0,5.0
2432,505.0,616.0,470.0,4.0,5.0,5.0
2433,505.0,617.0,470.0,4.0,6.0,5.0
2434,505.0,617.0,470.0,4.0,6.0,5.0
2435,505.0,617.0,469.0,5.0,6.0,5.0
2436,505.0,617.0,469.0,4.0,6.0,5.0
2437,505.0,617.0,470.0,4.0,6.0,5.0
2438,505.0,616.0,469.0,4.0,6.0,6.0
2439,506.0,616.0,470.0,4.0,6.0,5.0
2440,505.0,616.0,470.0,4.0,5.0,5.0
2441,506.0,616.0,469.0,4.0,6.0,6.0
2442,506.0,616.0,470.0,4.0,6.0,6.0
2443,506.0,617.0,470.0,4.0,6.0,5.0
2444,505.0,616.0,470.0,4.0,6.0,5.0
2445,505.0,617.0,470.0,4.0,6.0,5.0
2446,505.0,616.0,470.0,4.0,6.0,5.0
2447,505.0,617.0,470.0,4.0,6.0,6.0
2448,505.0,617.0,470.0,4.0,6.0,6.0
2449,505.0,617.0,470.0,4.0,6.0,6.0
2450,505.0,616.0,470.0,4.0,6.0,5.0
2451,505.0,616.0,470.0,4.0,6.0,5.0
2452,505.0,617.0,470.0,4.0,5.0,6.0
2453,505.0,617.0,470.0,4.0,6.0,6.0
2454,505.0,617.0,469.0,4.0,6.0,5.0
2455,505.0,616.0,469.0,4.0,6.0,6.0
2456,506.0,616.0,469.0,4.0,6.0,6.0
2457,506.0,616.0,470.0,4.0,5.0,6.0
2458,505.0,616.0,470.0,4.0,6.0,6.0
2459,505.0,617.0,470.0,4.0,6.0,5.0
2460,505.0,616.0,470.0,5.0,6.0,5.0
2461,505.0,616.0,470.0,3.0,5.0,5.0
2462,505.0,617.0,469.0,4.0,6.0,6.0
2463,505.0,617.0,470.0,4.0,6.0,5.0
2464,505.0,617.0,470.0,4.0,6.0,6.0
2465,506.0,616.0,470.0,4.0,6.0,5.0
2466,506.0,616.0,469.0,4.0,5.0,5.0
2467,505.0,617.0,470.0,4.0,6.0,5.0
2468,505.0,616.0,470.0,4.0,6.0,6.0
2469,505.0,617.0,470.0,4.0,6.0,5.0
2470,505.0,617.0,470.0,4.0,6.0,5.0
2471,505.0,617.0,470.0,4.0,6.0,5.0
2472,505.0,617.0,469.0,4.0,6.0,6.0
2473,506.0,617.0,469.0,4.0,6.0,6.0
2474,506.0,616.0,470.0,5.0,6.0,6.0
2475,505.0,616.0,470.0,4.0,6.0,6.0
2476,505.0,616.0,470.0,4.0,6.0,6.0
2477,505.0,616.0,469.0,4.0,6.0,6.0
2478,505.0,616.0,470.0,4.0,6.0,6.0
2479,506.0,617.0,470.0,4.0,6.0,6.0
2480,505.0,616.0,470.0,4.0,6.0,6.0
2481,505.0,616.0,470.0,4.0,6.0,6.0
2482,505.0,617.0,470.0,4.0,6.0,6.0
2483,505.0,617.0,470.0,4.0,6.0,6.0
2484,505.0,616.0,470.0,4.0,6.0,6.0
2485,505.0,617.0,470.0,4.0,6.0,6.0
2486,505.0,616.0,470.0,5.0,6.0,6.0
2487,505.0,616.0,469.0,5.0,6.0,6.0
2488,505.0,617.0,469.0,4.0,6.0,6.0
2489,505.0,617.0,470.0,4.0,6.0,6.0
2490,505.0,616.0,469.0,4.0,6.0,6.0
2491,505.0,617.0,470.0,4.0,6.0,6.0
2492,505.0,617.0,469.0,4.0,6.0,6.0
2493,505.0,617.0,470.0,4.0,6.0,5.0
2494,506.0,617.0,469.0,4.0,5.0,6.0
2495,506.0,616.0,470.0,4.0,6.0,5.0
2496,505.0,617.0,469.0,4.0,6.0,6.0
2497,505.0,617.0,469.0,4.0,6.0,6.0
2498,505.0,617.0,470.0,4.0,5.0,5.0
2499,505.0,616.0,470.0,4.0,6.0,6.0
2500,505.0,616.0,470.0,4.0,6.0,6.0
2501,505.0,616.0,470.0,4.0,6.0,6.0
2502,506.0,616.0,470.0,4.0,6.0,6.0
2503,505.0,617.0,469.0,4.0,6.0,6.0
2504,506.0,617.0,469.0,4.0,5.0,6.0
2505,505.0,616.0,470.0,4.0,6.0,6.0
2506,505.0,616.0,470.0,4.0,6.0,6.0
2507,505.0,616.0,470.0,5.0,5.0,6.0
2508,505.0,616.0,470.0,4.0,6.0,6.0
2509,505.0,617.0,470.0,4.0,6.0,6.0
2510,506.0,617.0,470.0,4.0,6.0,6.0
2511,505.0,616.0,470.0,4.0,5.0,6.0
2512,505.0,617.0,470.0,4.0,6.0,6.0
2513,505.0,616.0,470.0,4.0,6.0,6.0
2514,505.0,616.0,470.0,4.0,6.0,5.0
2515,506.0,617.0,470.0,4.0,6.0,6.0
2516,505.0,617.0,470.0,4.0,6.0,6.0
2517,506.0,617.0,470.0,4.0,6.0,6.0
2518,506.0,617.0,470.0,4.0,5.0,5.0
2519,506.0,617.0,470.0,4.0,6.0,5.0
2520,505.0,617.0,470.0,4.0,6.0,6.0
2521,505.0,616.0,469.0,5.0,7.0,6.0
2522,505.0,617.0,470.0,5.0,7.0,7.0
2523,505.0,617.0,470.0,4.0,7.0,7.0
2524,505.0,616.0,469.0,4.0,7.0,7.0
2525,505.0,616.0,469.0,6.0,8.0,9.0
2526,504.0,616.0,469.0,6.0,8.0,10.0
2527,505.0,616.0,470.0,6.0,7.0,9.0
2528,505.0,617.0,470.0,6.0,7.0,9.0
2529,505.0,617.0,470.0,6.0,8.0,9.0
2530,505.0,617.0,470.0,6.0,7.0,8.0
2531,505.0,616.0,469.0,5.0,7.0,9.0
2532,506.0,616.0,470.0,6.0,7.0,8.0
2533,505.0,617.0,470.0,5.0,8.0,8.0
2534,505.0,617.0,469.0,6.0,7.0,9.0
2535,505.0,617.0,470.0,6.0,8.0,8.0
2536,505.0,616.0,470.0,6.0,7.0,8.0
2537,506.0,617.0,470.0,6.0,7.0,8.0
2538,505.0,617.0,470.0,6.0,7.0,8.0
2539,505.0,616.0,470.0,6.0,7.0,8.0
2540,505.0,617.0,470.0,5.0,7.0,8.0
2541,505.0,617.0,470.0,5.0,7.0,8.0
2542,505.0,616.0,470.0,6.0,7.0,7.0
2543,505.0,617.0,470.0,5.0,7.0,8.0
2544,505.0,617.0,470.0,6.0,7.0,8.0
2545,505.0,616.0,470.0,6.0,7.0,8.0
2546,506.0,616.0,470.0,5.0,7.0,7.0
2547,506.0,616.0,470.0,6.0,7.0,8.0
2548,505.0,616.0,470.0,5.0,7.0,8.0
2549,505.0,617.0,470.0,6.0,7.0,8.0
2550,505.0,617.0,470.0,5.0,7.0,7.0
2551,505.0,617.0,470.0,5.0,7.0,8.0
2552,505.0,616.0,470.0,4.0,7.0,7.0
2553,505.0,617.0,470.0,6.0,7.0,8.0
2554,505.0,617.0,470.0,5.0,7.0,8.0
2555,505.0,617.0,470.0,5.0,7.0,8.0
2556,506.0,617.0,470.0,5.0,7.0,8.0
2557,505.0,617.0,470.0,5.0,7.0,8.0
2558,505.0,616.0,469.0,5.0,7.0,8.0
2559,505.0,617.0,470.0,5.0,7.0,8.0
2560,506.0,617.0,469.0,5.0,6.0,7.0
2561,506.0,616.0,470.0,5.0,7.0,8.0
2562,505.0,616.0,470.0,5.0,6.0,8.0
2563,505.0,616.0,470.0,5.0,7.0,7.0
2564,505.0,616.0,470.0,5.0,7.0,8.0
2565,505.0,616.0,470.0,5.0,7.0,7.0
2566,505.0,616.0,470.0,5.0,6.0,8.0
2567,505.0,617.0,470.0,5.0,7.0,7.0
2568,506.0,617.0,470.0,5.0,6.0,7.0
2569,505.0,617.0,470.0,5.0,7.0,7.0
2570,505.0,616.0,470.0,5.0,7.0,8.0
2571,505.0,617.0,470.0,5.0,6.0,7.0
2572,506.0,617.0,470.0,5.0,6.0,7.0
2573,505.0,617.0,469.0,5.0,7.0,7.0
2574,505.0,617.0,470.0,5.0,6.0,8.0
2575,506.0,616.0,470.0,5.0,6.0,7.0
2576,506.0,617.0,469.0,5.0,6.0,8.0
2577,505.0,616.0,470.0,5.0,7.0,7.0
2578,505.0,617.0,469.0,5.0,6.0,8.0
2579,505.0,616.0,470.0,5.0,6.0,7.0
2580,505.0,617.0,470.0,5.0,6.0,7.0
2581,505.0,616.0,470.0,5.0,6.0,8.0
2582,506.0,616.0,470.0,5.0,6.0,7.0
2583,506.0,617.0,470.0,6.0,6.0,7.0
2584,506.0,617.0,470.0,5.0,6.0,8.0
2585,505.0,616.0,469.0,5.0,6.0,7.0
2586,505.0,616.0,470.0,5.0,6.0,7.0
2587,505.0,617.0,470.0,5.0,6.0,7.0
2588,505.0,617.0,470.0,4.0,6.0,8.0
2589,505.0,617.0,470.0,5.0,6.0,7.0
2590,505.0,617.0,470.0,5.0,6.0,7.0
2591,505.0,617.0,470.0,5.0,6.0,6.0
2592,506.0,616.0,470.0,5.0,6.0,7.0
2593,505.0,617.0,470.0,5.0,6.0,8.0
2594,506.0,616.0,470.0,5.0,6.0,7.0
2595,505.0,616.0,470.0,4.0,6.0,8.0
2596,505.0,616.0,470.0,5.0,6.0,8.0
2597,505.0,616.0,470.0,5.0,6.0,7.0
2598,505.0,616.0,470.0,5.0,6.0,7.0
2599,505.0,616.0,470.0,4.0,6.0,7.0
2600,505.0,616.0,470.0,5.0,6.0,7.0
2601,506.0,616.0,469.0,5.0,6.0,7.0
2602,505.0,616.0,470.0,5.0,6.0,7.0
2603,505.0,617.0,470.0,4.0,6.0,7.0
2604,506.0,616.0,470.0,4.0,6.0,7.0
2605,505.0,617.0,470.0,5.0,6.0,7.0
2606,505.0,617.0,469.0,4.0,6.0,7.0
2607,505.0,617.0,469.0,5.0,6.0,7.0
2608,505.0,616.0,470.0,5.0,6.0,7.0
2609,505.0,616.0,470.0,5.0,6.0,8.0
2610,505.0,617.0,470.0,5.0,6.0,7.0
2611,505.0,616.0,470.0,5.0,6.0,7.0
2612,505.0,616.0,469.0,4.0,6.0,7.0
2613,506.0,617.0,470.0,5.0,6.0,7.0
2614,505.0,617.0,470.0,4.0,6.0,7.0
2615,505.0,617.0,470.0,4.0,5.0,7.0
2616,505.0,616.0,470.0,5.0,6.0,7.0
2617,505.0,617.0,470.0,5.0,6.0,6.0
2618,505.0,617.0,470.0,5.0,6.0,7.0
2619,506.0,617.0,470.0,4.0,6.0,7.0
2620,505.0,616.0,470.0,4.0,6.0,7.0
2621,505.0,616.0,470.0,5.0,6.0,7.0
2622,506.0,616.0,470.0,5.0,6.0,7.0
2623,505.0,616.0,470.0,5.0,6.0,7.0
2624,505.0,616.0,470.0,4.0,6.0,7.0
2625,505.0,616.0,470.0,5.0,6.0,7.0
2626,505.0,617.0,469.0,4.0,6.0,6.0
2627,505.0,617.0,469.0,4.0,6.0,6.0
2628,506.0,617.0,470.0,4.0,6.0,6.0
2629,506.0,616.0,470.0,4.0,6.0,6.0
2630,505.0,617.0,470.0,4.0,6.0,7.0
2631,505.0,617.0,470.0,4.0,6.0,7.0
2632,505.0,617.0,470.0,5.0,6.0,7.0
2633,505.0,617.0,470.0,4.0,6.0,7.0
2634,505.0,617.0,470.0,5.0,5.0,7.0
2635,505.0,617.0,470.0,4.0,6.0,7.0
2636,505.0,617.0,470.0,4.0,6.0,7.0
2637,505.0,617.0,470.0,4.0,5.0,6.0
2638,505.0,616.0,470.0,4.0,6.0,7.0
2639,505.0,616.0,470.0,4.0,6.0,6.0
2640,505.0,617.0,470.0,4.0,6.0,7.0
2641,506.0,617.0,470.0,4.0,6.0,6.0
2642,505.0,617.0,470.0,5.0,6.0,6.0
2643,505.0,617.0,469.0,4.0,6.0,6.0
2644,506.0,617.0,470.0,5.0,6.0,6.0
2645,505.0,617.0,470.0,6.0,5.0,6.0
2646,505.0,617.0,470.0,4.0,5.0,7.0
2647,505.0,616.0,470.0,4.0,5.0,7.0
2648,505.0,616.0,470.0,4.0,6.0,6.0
2649,506.0,617.0,470.0,4.0,6.0,6.0
2650,505.0,617.0,469.0,4.0,6.0,6.0
2651,506.0,617.0,470.0,4.0,6.0,7.0
2652,505.0,617.0,470.0,4.0,6.0,6.0
2653,505.0,616.0,469.0,4.0,6.0,7.0
2654,505.0,617.0,470.0,5.0,6.0,6.0
2655,506.0,617.0,470.0,5.0,5.0,6.0
2656,506.0,616.0,470.0,4.0,5.0,6.0
2657,505.0,616.0,470.0,4.0,5.0,6.0
2658,506.0,616.0,470.0,5.0,6.0,6.0
2659,506.0,616.0,470.0,4.0,5.0,6.0
2660,505.0,617.0,469.0,4.0,5.0,6.0
2661,505.0,616.0,470.0,4.0,5.0,6.0
2662,505.0,616.0,470.0,4.0,6.0,6.0
2663,506.0,616.0,470.0,4.0,6.0,6.0
2664,505.0,617.0,470.0,4.0,5.0,6.0
2665,506.0,617.0,470.0,4.0,6.0,6.0
2666,506.0,617.0,469.0,4.0,5.0,6.0
2667,506.0,617.0,470.0,4.0,5.0,6.0
2668,505.0,616.0,470.0,4.0,5.0,7.0
2669,505.0,617.0,470.0,5.0,5.0,6.0
2670,505.0,616.0,470.0,5.0,5.0,7.0
2671,505.0,616.0,470.0,5.0,5.0,6.0
2672,505.0,617.0,470.0,4.0,5.0,6.0
2673,506.0,616.0,469.0,5.0,6.0,6.0
2674,505.0,616.0,469.0,4.0,5.0,6.0
2675,505.0,616.0,470.0,4.0,5.0,6.0
2676,505.0,616.0,470.0,5.0,6.0,6.0
2677,506.0,617.0,470.0,4.0,6.0,6.0
2678,505.0,617.0,469.0,5.0,6.0,6.0
2679,505.0,617.0,470.0,4.0,5.0,6.0
2680,505.0,617.0,470.0,4.0,5.0,6.0
2681,506.0,616.0,469.0,4.0,5.0,6.0
2682,506.0,617.0,469.0,5.0,6.0,6.0
2683,505.0,617.0,470.0,4.0,5.0,6.0
2684,505.0,616.0,470.0,4.0,6.0,6.0
2685,505.0,616.0,471.0,4.0,6.0,5.0
2686,505.0,616.0,470.0,5.0,6.0,6.0
2687,505.0,617.0,470.0,5.0,6.0,5.0
2688,505.0,616.0,470.0,4.0,6.0,6.0
2689,505.0,616.0,470.0,4.0,5.0,6.0
2690,505.0,616.0,470.0,5.0,6.0,5.0
2691,505.0,616.0,470.0,4.0,6.0,6.0
2692,505.0,616.0,470.0,4.0,6.0,6.0
2693,505.0,616.0,470.0,4.0,5.0,6.0
2694,505.0,616.0,470.0,5.0,6.0,6.0
2695,505.0,617.0,470.0,4.0,6.0,6.0
2696,506.0,617.0,470.0,4.0,6.0,6.0
2697,506.0,616.0,469.0,4.0,5.0,6.0
2698,505.0,617.0,470.0,4.0,5.0,6.0
2699,505.0,617.0,470.0,4.0,6.0,6.0
2700,505.0,617.0,470.0,4.0,6.0,5.0
2701,505.0,616.0,470.0,4.0,6.0,5.0
2702,506.0,616.0,470.0,4.0,5.0,6.0
2703,506.0,617.0,470.0,4.0,6.0,6.0
2704,505.0,616.0,470.0,4.0,6.0,6.0
2705,505.0,617.0,469.0,4.0,5.0,6.0
2706,505.0,617.0,470.0,5.0,6.0,6.0
2707,505.0,617.0,470.0,5.0,5.0,6.0
2708,505.0,617.0,470.0,4.0,5.0,5.0
2709,505.0,617.0,470.0,4.0,6.0,7.0
2710,505.0,616.0,470.0,4.0,6.0,6.0
2711,506.0,617.0,470.0,4.0,6.0,6.0
2712,506.0,616.0,470.0,4.0,5.0,5.0
2713,505.0,616.0,470.0,4.0,6.0,6.0
2714,505.0,616.0,470.0,4.0,6.0,6.0
2715,505.0,616.0,469.0,4.0,6.0,6.0
2716,505.0,617.0,470.0,4.0,6.0,6.0
2717,505.0,617.0,470.0,4.0,5.0,6.0
2718,506.0,617.0,469.0,4.0,5.0,6.0
2719,506.0,616.0,470.0,4.0,5.0,6.0
2720,505.0,616.0,469.0,3.0,5.0,6.0
2721,505.0,616.0,470.0,4.0,5.0,6.0
2722,505.0,616.0,470.0,4.0,5.0,6.0
2723,505.0,616.0,469.0,4.0,5.0,6.0
2724,505.0,617.0,469.0,4.0,5.0,6.0
2725,505.0,617.0,469.0,4.0,5.0,6.0
2726,505.0,616.0,470.0,4.0,5.0,5.0
2727,505.0,617.0,470.0,5.0,6.0,5.0
2728,505.0,617.0,470.0,4.0,5.0,6.0
2729,505.0,617.0,470.0,4.0,5.0,6.0
2730,505.0,617.0,470.0,4.0,6.0,5.0
2731,505.0,616.0,470.0,4.0,5.0,6.0
2732,505.0,617.0,470.0,4.0,5.0,6.0
2733,505.0,616.0,470.0,4.0,5.0,6.0
2734,505.0,616.0,469.0,4.0,5.0,5.0
2735,505.0,616.0,469.0,4.0,5.0,5.0
2736,505.0,616.0,470.0,4.0,5.0,6.0
2737,505.0,616.0,470.0,4.0,5.0,6.0
2738,505.0,617.0,470.0,4.0,5.0,5.0
2739,505.0,616.0,470.0,4.0,5.0,6.0
2740,505.0,616.0,470.0,4.0,5.0,5.0
2741,505.0,617.0,470.0,4.0,5.0,6.0
2742,505.0,617.0,470.0,4.0,5.0,5.0
2743,505.0,617.0,470.0,4.0,5.0,5.0
2744,505.0,616.0,470.0,4.0,5.0,6.0
2745,506.0,617.0,470.0,4.0,5.0,6.0
2746,505.0,617.0,469.0,4.0,6.0,6.0
2747,505.0,617.0,469.0,4.0,6.0,5.0
2748,506.0,617.0,470.0,4.0,5.0,6.0
2749,505.0,616.0,470.0,4.0,5.0,5.0
2750,505.0,617.0,470.0,5.0,5.0,6.0
2751,505.0,617.0,470.0,4.0,6.0,6.0
2752,505.0,616.0,469.0,4.0,6.0,6.0
2753,506.0,617.0,470.0,4.0,6.0,5.0
2754,505.0,616.0,470.0,4.0,6.0,5.0
2755,506.0,617.0,470.0,4.0,6.0,5.0
2756,505.0,617.0,470.0,4.0,6.0,5.0
2757,505.0,617.0,470.0,4.0,6.0,5.0
2758,505.0,617.0,470.0,3.0,6.0,7.0
2759,505.0,616.0,470.0,4.0,6.0,6.0
2760,505.0,617.0,470.0,4.0,6.0,6.0
2761,506.0,617.0,469.0,4.0,7.0,5.0
2762,506.0,616.0,469.0,4.0,6.0,5.0
2763,506.0,616.0,470.0,4.0,6.0,6.0
2764,506.0,616.0,470.0,4.0,6.0,5.0
2765,505.0,617.0,470.0,4.0,6.0,5.0
2766,505.0,617.0,470.0,4.0,6.0,6.0
2767,505.0,615.0,469.0,4.0,6.0,6.0
2768,505.0,617.0,470.0,4.0,5.0,5.0
2769,505.0,616.0,470.0,5.0,5.0,6.0
2770,505.0,617.0,470.0,4.0,6.0,5.0
2771,505.0,616.0,470.0,4.0,6.0,5.0
2772,505.0,616.0,470.0,4.0,5.0,5.0
2773,505.0,616.0,470.0,5.0,5.0,5.0
2774,505.0,617.0,470.0,4.0,6.0,5.0
2775,505.0,617.0,469.0,4.0,6.0,5.0
2776,505.0,617.0,470.0,4.0,5.0,5.0
2777,505.0,616.0,470.0,4.0,6.0,5.0
2778,505.0,616.0,470.0,4.0,5.0,4.0
2779,506.0,616.0,470.0,4.0,5.0,5.0
2780,505.0,616.0,470.0,4.0,6.0,5.0
2781,506.0,616.0,470.0,4.0,6.0,5.0
2782,505.0,616.0,470.0,4.0,6.0,5.0
2783,505.0,617.0,470.0,3.0,5.0,5.0
2784,505.0,617.0,470.0,4.0,6.0,6.0
2785,506.0,617.0,470.0,4.0,6.0,6.0
2786,506.0,617.0,470.0,5.0,6.0,5.0
2787,506.0,617.0,470.0,4.0,5.0,5.0
2788,505.0,616.0,470.0,4.0,5.0,5.0
2789,506.0,616.0,470.0,4.0,5.0,6.0
2790,506.0,616.0,470.0,4.0,5.0,6.0
2791,505.0,616.0,470.0,3.0,5.0,5.0
2792,505.0,617.0,470.0,5.0,6.0,5.0
2793,505.0,616.0,469.0,4.0,5.0,5.0
2794,505.0,617.0,470.0,4.0,6.0,5.0
2795,505.0,616.0,470.0,4.0,5.0,5.0
2796,505.0,616.0,470.0,4.0,6.0,6.0
2797,505.0,616.0,470.0,4.0,6.0,5.0
2798,505.0,616.0,470.0,4.0,5.0,5.0
2799,505.0,617.0,470.0,5.0,6.0,5.0
2800,505.0,617.0,470.0,4.0,6.0,5.0
2801,506.0,617.0,470.0,4.0,5.0,5.0
2802,506.0,617.0,470.0,4.0,5.0,5.0
2803,505.0,618.0,470.0,4.0,5.0,5.0
2804,505.0,617.0,470.0,4.0,6.0,5.0
2805,505.0,617.0,470.0,4.0,6.0,6.0
2806,505.0,617.0,470.0,5.0,6.0,5.0
2807,505.0,617.0,470.0,4.0,6.0,5.0
2808,506.0,616.0,469.0,4.0,6.0,5.0
2809,506.0,617.0,470.0,4.0,6.0,5.0
2810,505.0,616.0,470.0,5.0,5.0,5.0
2811,505.0,616.0,470.0,4.0,6.0,6.0
2812,505.0,616.0,470.0,4.0,5.0,5.0
2813,505.0,616.0,470.0,4.0,5.0,5.0
2814,505.0,616.0,469.0,4.0,6.0,5.0
2815,505.0,617.0,470.0,5.0,5.0,5.0
2816,505.0,617.0,470.0,4.0,5.0,5.0
2817,506.0,617.0,470.0,4.0,5.0,5.0
2818,505.0,616.0,470.0,4.0,5.0,6.0
2819,505.0,617.0,470.0,4.0,5.0,5.0
2820,505.0,617.0,470.0,4.0,5.0,5.0
2821,505.0,617.0,470.0,4.0,5.0,5.0
2822,505.0,617.0,470.0,4.0,5.0,6.0
2823,506.0,617.0,470.0,4.0,5.0,5.0
2824,505.0,617.0,470.0,4.0,6.0,5.0
2825,505.0,617.0,469.0,4.0,5.0,6.0
2826,505.0,616.0,470.0,4.0,5.0,6.0
2827,505.0,616.0,470.0,4.0,5.0,6.0
2828,505.0,616.0,470.0,5.0,5.0,5.0
2829,506.0,616.0,470.0,4.0,5.0,6.0
2830,505.0,616.0,470.0,4.0,5.0,5.0
2831,506.0,617.0,470.0,3.0,5.0,6.0
2832,506.0,617.0,470.0,4.0,5.0,5.0
2833,505.0,617.0,470.0,3.0,5.0,5.0
2834,505.0,617.0,470.0,4.0,5.0,6.0
2835,505.0,616.0,471.0,4.0,5.0,5.0
2836,505.0,616.0,470.0,4.0,5.0,5.0
2837,505.0,616.0,470.0,4.0,5.0,5.0
2838,506.0,617.0,470.0,4.0,5.0,5.0
2839,505.0,617.0,469.0,4.0,5.0,5.0
2840,505.0,617.0,470.0,4.0,5.0,5.0
2841,505.0,617.0,470.0,3.0,5.0,6.0
2842,505.0,616.0,469.0,4.0,5.0,5.0
2843,506.0,616.0,470.0,4.0,5.0,5.0
2844,505.0,616.0,470.0,3.0,5.0,6.0
2845,505.0,616.0,470.0,4.0,5.0,5.0
2846,505.0,617.0,470.0,4.0,5.0,5.0
2847,505.0,617.0,470.0,4.0,5.0,5.0
2848,505.0,617.0,470.0,4.0,5.0,5.0
2849,505.0,617.0,470.0,4.0,5.0,5.0
2850,505.0,617.0,469.0,5.0,5.0,5.0
2851,505.0,616.0,470.0,4.0,5.0,5.0
2852,505.0,617.0,469.0,4.0,5.0,5.0
2853,506.0,616.0,470.0,4.0,5.0,5.0
2854,506.0,617.0,470.0,4.0,5.0,5.0
2855,505.0,616.0,470.0,4.0,5.0,5.0
2856,506.0,616.0,469.0,4.0,5.0,5.0
2857,505.0,617.0,470.0,5.0,5.0,5.0
2858,505.0,617.0,469.0,4.0,5.0,5.0
2859,505.0,617.0,470.0,4.0,5.0,5.0
2860,506.0,617.0,470.0,4.0,5.0,5.0
2861,506.0,616.0,470.0,4.0,5.0,5.0
2862,506.0,616.0,470.0,4.0,5.0,5.0
2863,505.0,616.0,470.0,4.0,5.0,5.0
2864,505.0,616.0,470.0,4.0,5.0,5.0
2865,505.0,616.0,470.0,4.0,5.0,5.0
2866,505.0,616.0,470.0,4.0,6.0,5.0
2867,505.0,617.0,470.0,4.0,6.0,5.0
2868,505.0,617.0,470.0,4.0,6.0,5.0
2869,505.0,617.0,470.0,4.0,6.0,5.0
2870,505.0,617.0,470.0,5.0,6.0,5.0
2871,505.0,617.0,470.0,4.0,6.0,6.0
2872,505.0,617.0,470.0,4.0,6.0,6.0
2873,505.0,617.0,470.0,4.0,5.0,5.0
2874,505.0,616.0,470.0,5.0,5.0,5.0
2875,505.0,617.0,470.0,4.0,6.0,6.0
2876,506.0,616.0,470.0,4.0,6.0,6.0
2877,506.0,617.0,470.0,5.0,6.0,5.0
2878,505.0,616.0,470.0,4.0,6.0,5.0
2879,505.0,616.0,470.0,4.0,6.0,5.0
2880,505.0,617.0,470.0,4.0,6.0,5.0
2881,505.0,616.0,470.0,4.0,6.0,5.0
2882,505.0,616.0,470.0,5.0,6.0,5.0
2883,506.0,617.0,470.0,4.0,6.0,5.0
2884,506.0,617.0,470.0,4.0,6.0,5.0
2885,505.0,617.0,470.0,4.0,6.0,5.0
2886,505.0,617.0,470.0,4.0,6.0,5.0
2887,505.0,617.0,469.0,4.0,5.0,5.0
2888,505.0,616.0,470.0,4.0,5.0,5.0
2889,505.0,616.0,470.0,4.0,6.0,4.0
2890,505.0,616.0,470.0,4.0,5.0,6.0
2891,505.0,616.0,470.0,4.0,6.0,6.0
2892,505.0,616.0,470.0,4.0,5.0,5.0
2893,505.0,616.0,470.0,4.0,6.0,6.0
2894,505.0,617.0,470.0,4.0,5.0,6.0
2895,506.0,617.0,469.0,4.0,5.0,6.0
2896,505.0,617.0,470.0,4.0,5.0,5.0
2897,505.0,616.0,470.0,4.0,6.0,5.0
2898,506.0,616.0,470.0,5.0,6.0,6.0
2899,506.0,616.0,470.0,4.0,6.0,5.0
2900,505.0,617.0,470.0,5.0,5.0,5.0
2901,505.0,616.0,470.0,3.0,6.0,5.0
2902,505.0,617.0,470.0,4.0,5.0,6.0
2903,506.0,617.0,470.0,4.0,5.0,5.0
2904,505.0,617.0,469.0,4.0,6.0,6.0
2905,505.0,617.0,470.0,4.0,5.0,6.0
2906,505.0,616.0,470.0,4.0,6.0,5.0
2907,505.0,616.0,470.0,4.0,5.0,5.0
2908,506.0,616.0,470.0,4.0,5.0,5.0
2909,505.0,616.0,470.0,4.0,5.0,5.0
2910,506.0,617.0,470.0,4.0,5.0,6.0
2911,505.0,617.0,470.0,4.0,5.0,5.0
2912,505.0,616.0,469.0,4.0,5.0,5.0
2913,506.0,616.0,470.0,4.0,6.0,6.0
2914,505.0,617.0,470.0,5.0,5.0,6.0
2915,505.0,616.0,470.0,4.0,5.0,5.0
2916,505.0,616.0,470.0,4.0,5.0,6.0
2917,505.0,616.0,470.0,4.0,5.0,5.0
2918,505.0,617.0,470.0,4.0,5.0,5.0
2919,505.0,616.0,470.0,5.0,6.0,6.0
2920,506.0,617.0,470.0,4.0,5.0,5.0
2921,505.0,617.0,470.0,4.0,5.0,5.0
2922,506.0,616.0,470.0,4.0,6.0,5.0
2923,505.0,616.0,469.0,4.0,5.0,5.0
2924,505.0,617.0,470.0,4.0,5.0,5.0
2925,505.0,617.0,469.0,4.0,5.0,5.0
2926,505.0,616.0,470.0,4.0,5.0,5.0
2927,505.0,617.0,470.0,4.0,5.0,6.0
2928,505.0,616.0,470.0,4.0,5.0,5.0
2929,505.0,617.0,470.0,4.0,5.0,5.0
2930,505.0,616.0,470.0,4.0,5.0,5.0
2931,505.0,617.0,470.0,5.0,5.0,5.0
2932,505.0,616.0,470.0,4.0,5.0,6.0
2933,505.0,616.0,470.0,4.0,5.0,5.0
2934,505.0,617.0,470.0,5.0,5.0,5.0
2935,505.0,616.0,469.0,4.0,5.0,5.0
2936,506.0,616.0,470.0,4.0,5.0,5.0
2937,506.0,616.0,470.0,4.0,5.0,5.0
2938,505.0,617.0,470.0,4.0,5.0,5.0
2939,505.0,617.0,470.0,4.0,5.0,5.0
2940,505.0,617.0,470.0,4.0,5.0,5.0
2941,505.0,617.0,470.0,4.0,5.0,5.0
2942,505.0,616.0,470.0,5.0,5.0,6.0
2943,506.0,617.0,469.0,4.0,5.0,5.0
2944,506.0,617.0,470.0,4.0,6.0,5.0
2945,505.0,617.0,470.0,4.0,4.0,5.0
2946,505.0,616.0,470.0,4.0,5.0,6.0
2947,506.0,617.0,470.0,4.0,5.0,5.0
2948,506.0,616.0,469.0,4.0,5.0,5.0
2949,506.0,616.0,470.0,4.0,5.0,5.0
2950,505.0,616.0,470.0,4.0,5.0,5.0
2951,506.0,617.0,470.0,4.0,6.0,5.0
2952,505.0,617.0,470.0,4.0,5.0,5.0
2953,505.0,617.0,470.0,4.0,5.0,5.0
2954,505.0,617.0,470.0,4.0,5.0,5.0
2955,505.0,617.0,470.0,4.0,5.0,5.0
2956,505.0,617.0,470.0,4.0,5.0,5.0
2957,506.0,616.0,470.0,4.0,5.0,5.0
2958,505.0,617.0,470.0,5.0,6.0,5.0
2959,505.0,617.0,469.0,4.0,6.0,5.0
2960,505.0,616.0,470.0,4.0,5.0,5.0
2961,506.0,616.0,470.0,4.0,5.0,5.0
2962,505.0,616.0,469.0,4.0,5.0,5.0
2963,505.0,617.0,469.0,4.0,5.0,5.0
2964,505.0,617.0,469.0,4.0,5.0,5.0
2965,505.0,617.0,470.0,4.0,5.0,5.0
2966,506.0,617.0,470.0,4.0,5.0,5.0
2967,505.0,617.0,469.0,4.0,6.0,5.0
2968,505.0,616.0,470.0,4.0,5.0,6.0
2969,505.0,616.0,469.0,4.0,6.0,5.0
2970,506.0,617.0,470.0,4.0,5.0,6.0
2971,506.0,617.0,470.0,4.0,3.0,5.0
2972,505.0,617.0,470.0,4.0,6.0,5.0
2973,505.0,616.0,470.0,4.0,5.0,5.0
2974,505.0,617.0,470.0,4.0,5.0,5.0
2975,505.0,617.0,470.0,4.0,5.0,5.0
2976,505.0,617.0,470.0,4.0,5.0,6.0
2977,505.0,616.0,470.0,4.0,5.0,6.0
2978,505.0,617.0,470.0,4.0,5.0,5.0
2979,505.0,617.0,470.0,4.0,5.0,6.0
2980,505.0,617.0,470.0,4.0,5.0,5.0
2981,505.0,616.0,470.0,4.0,5.0,5.0
2982,505.0,617.0,470.0,4.0,5.0,5.0
2983,505.0,617.0,470.0,4.0,5.0,6.0
2984,505.0,617.0,469.0,4.0,5.0,5.0
2985,505.0,616.0,470.0,4.0,6.0,5.0
2986,506.0,617.0,470.0,4.0,5.0,5.0
2987,505.0,616.0,470.0,4.0,5.0,5.0
2988,506.0,616.0,470.0,4.0,5.0,5.0
2989,506.0,617.0,470.0,4.0,6.0,5.0
2990,505.0,617.0,470.0,4.0,6.0,5.0
2991,506.0,618.0,471.0,4.0,5.0,6.0
2992,506.0,617.0,470.0,4.0,6.0,6.0
2993,506.0,616.0,470.0,4.0,6.0,5.0
2994,505.0,615.0,469.0,6.0,7.0,6.0
2995,506.0,616.0,470.0,6.0,7.0,6.0
2996,505.0,616.0,470.0,6.0,8.0,6.0
2997,505.0,616.0,469.0,6.0,8.0,8.0
2998,504.0,615.0,469.0,7.0,11.0,11.0
2999,505.0,616.0,470.0,7.0,12.0,10.0
3000,505.0,616.0,470.0,7.0,12.0,10.0
3001,505.0,616.0,470.0,7.0,11.0,10.0
3002,506.0,617.0,470.0,7.0,11.0,10.0
3003,505.0,616.0,470.0,7.0,11.0,10.0
3004,505.0,616.0,470.0,7.0,11.0,9.0
3005,506.0,618.0,471.0,7.0,12.0,11.0
3006,506.0,618.0,470.0,7.0,12.0,11.0
3007,506.0,617.0,470.0,8.0,11.0,10.0
3008,505.0,616.0,470.0,7.0,11.0,10.0
3009,505.0,616.0,469.0,9.0,12.0,13.0
3010,506.0,617.0,470.0,8.0,12.0,13.0
3011,506.0,617.0,470.0,9.0,12.0,13.0
3012,505.0,615.0,469.0,9.0,14.0,14.0
3013,505.0,616.0,469.0,9.0,14.0,13.0
3014,505.0,616.0,469.0,9.0,14.0,13.0
3015,505.0,617.0,469.0,9.0,14.0,13.0
3016,505.0,617.0,470.0,8.0,14.0,13.0
3017,505.0,616.0,470.0,9.0,14.0,13.0
3018,506.0,616.0,470.0,9.0,14.0,13.0
3019,505.0,616.0,470.0,9.0,13.0,13.0
3020,506.0,616.0,470.0,8.0,13.0,13.0
3021,505.0,617.0,470.0,9.0,13.0,12.0
3022,506.0,616.0,469.0,9.0,13.0,12.0
3023,505.0,617.0,470.0,9.0,13.0,13.0
3024,505.0,617.0,470.0,9.0,13.0,12.0
3025,506.0,616.0,469.0,8.0,13.0,12.0
3026,506.0,617.0,470.0,8.0,13.0,12.0
3027,505.0,617.0,470.0,8.0,13.0,12.0
3028,505.0,617.0,470.0,9.0,12.0,12.0
3029,505.0,616.0,470.0,8.0,12.0,12.0
3030,506.0,617.0,469.0,8.0,12.0,12.0
3031,506.0,616.0,470.0,8.0,12.0,11.0
3032,505.0,616.0,469.0,8.0,12.0,12.0
3033,505.0,617.0,470.0,8.0,12.0,11.0
3034,505.0,616.0,469.0,8.0,12.0,11.0
3035,505.0,617.0,469.0,8.0,12.0,11.0
3036,505.0,617.0,469.0,8.0,12.0,11.0
3037,505.0,616.0,470.0,8.0,12.0,11.0
3038,505.0,616.0,470.0,8.0,11.0,11.0
3039,505.0,616.0,470.0,8.0,11.0,11.0
3040,505.0,616.0,470.0,8.0,11.0,11.0
3041,505.0,616.0,470.0,7.0,11.0,11.0
3042,506.0,616.0,470.0,7.0,11.0,10.0
3043,506.0,616.0,469.0,7.0,11.0,10.0
3044,505.0,617.0,469.0,7.0,11.0,10.0
3045,505.0,616.0,470.0,7.0,11.0,10.0
3046,505.0,617.0,470.0,7.0,10.0,10.0
3047,505.0,617.0,470.0,7.0,11.0,10.0
3048,505.0,617.0,470.0,9.0,11.0,10.0
3049,505.0,616.0,470.0,7.0,11.0,10.0
3050,506.0,617.0,470.0,7.0,10.0,11.0
3051,506.0,617.0,470.0,7.0,10.0,10.0
3052,505.0,617.0,469.0,7.0,10.0,10.0
3053,505.0,617.0,470.0,6.0,10.0,10.0
3054,505.0,617.0,469.0,7.0,10.0,10.0
3055,505.0,617.0,470.0,7.0,10.0,10.0
3056,505.0,617.0,470.0,7.0,10.0,10.0
3057,505.0,616.0,469.0,6.0,10.0,10.0
3058,505.0,616.0,470.0,7.0,10.0,10.0
3059,505.0,617.0,469.0,7.0,9.0,9.0
3060,505.0,617.0,470.0,6.0,9.0,10.0
3061,505.0,617.0,470.0,6.0,9.0,10.0
3062,506.0,617.0,470.0,7.0,10.0,9.0
3063,506.0,616.0,470.0,7.0,9.0,9.0
3064,505.0,616.0,470.0,6.0,9.0,9.0
3065,505.0,616.0,470.0,7.0,9.0,9.0
3066,505.0,617.0,470.0,7.0,9.0,9.0
3067,506.0,616.0,469.0,7.0,9.0,9.0
3068,506.0,616.0,470.0,6.0,9.0,9.0
3069,505.0,617.0,470.0,7.0,9.0,9.0
3070,505.0,616.0,470.0,6.0,9.0,9.0
3071,505.0,617.0,470.0,7.0,9.0,9.0
3072,505.0,617.0,469.0,6.0,9.0,9.0
3073,505.0,616.0,470.0,7.0,9.0,9.0
3074,505.0,616.0,470.0,7.0,9.0,8.0
3075,505.0,616.0,470.0,6.0,9.0,9.0
3076,505.0,617.0,470.0,6.0,9.0,9.0
3077,505.0,617.0,469.0,6.0,8.0,9.0
3078,505.0,616.0,469.0,6.0,9.0,8.0
3079,505.0,616.0,470.0,6.0,8.0,9.0
3080,505.0,617.0,470.0,6.0,9.0,8.0
3081,505.0,617.0,470.0,6.0,9.0,7.0
3082,505.0,617.0,470.0,6.0,8.0,8.0
3083,506.0,617.0,470.0,6.0,8.0,8.0
3084,505.0,617.0,470.0,6.0,8.0,8.0
3085,505.0,616.0,470.0,6.0,8.0,8.0
3086,505.0,617.0,470.0,6.0,8.0,9.0
3087,505.0,616.0,470.0,6.0,8.0,8.0
3088,505.0,617.0,470.0,6.0,8.0,9.0
3089,505.0,617.0,470.0,6.0,8.0,8.0
3090,505.0,617.0,469.0,6.0,8.0,9.0
3091,505.0,617.0,470.0,6.0,8.0,8.0
3092,505.0,617.0,470.0,6.0,8.0,7.0
3093,505.0,617.0,470.0,6.0,8.0,7.0
3094,505.0,617.0,470.0,6.0,8.0,7.0
3095,505.0,617.0,470.0,6.0,8.0,7.0
3096,505.0,617.0,469.0,6.0,8.0,8.0
3097,505.0,616.0,470.0,6.0,8.0,7.0
3098,506.0,616.0,470.0,6.0,8.0,8.0
3099,505.0,616.0,469.0,6.0,8.0,7.0
3100,505.0,616.0,470.0,5.0,7.0,8.0
3101,505.0,616.0,470.0,5.0,8.0,7.0
3102,505.0,616.0,470.0,6.0,7.0,8.0
3103,505.0,617.0,470.0,5.0,7.0,7.0
3104,505.0,616.0,470.0,5.0,7.0,7.0
3105,505.0,616.0,470.0,6.0,7.0,7.0
3106,505.0,617.0,470.0,6.0,7.0,7.0
3107,505.0,617.0,470.0,5.0,7.0,7.0
3108,505.0,616.0,470.0,5.0,8.0,7.0
3109,505.0,616.0,470.0,5.0,7.0,7.0
3110,505.0,617.0,470.0,5.0,7.0,7.0
3111,505.0,616.0,469.0,5.0,7.0,7.0
3112,506.0,617.0,470.0,6.0,7.0,7.0
3113,506.0,617.0,470.0,6.0,7.0,7.0
3114,505.0,616.0,469.0,6.0,7.0,7.0
3115,506.0,616.0,470.0,5.0,7.0,7.0
3116,506.0,616.0,470.0,5.0,7.0,7.0
3117,505.0,617.0,470.0,5.0,7.0,7.0
3118,506.0,617.0,470.0,5.0,7.0,7.0
3119,506.0,617.0,470.0,6.0,7.0,6.0
3120,506.0,617.0,470.0,5.0,7.0,7.0
3121,505.0,617.0,469.0,5.0,7.0,7.0
3122,505.0,616.0,470.0,5.0,7.0,7.0
3123,505.0,616.0,470.0,4.0,7.0,7.0
3124,505.0,617.0,469.0,5.0,7.0,7.0
3125,505.0,617.0,470.0,5.0,7.0,6.0
3126,505.0,617.0,470.0,5.0,7.0,6.0
3127,506.0,616.0,470.0,5.0,7.0,7.0
3128,506.0,617.0,470.0,5.0,7.0,6.0
3129,505.0,617.0,470.0,5.0,7.0,7.0
3130,505.0,617.0,470.0,5.0,7.0,7.0
3131,505.0,616.0,470.0,5.0,7.0,7.0
3132,505.0,616.0,470.0,5.0,7.0,6.0
3133,505.0,617.0,470.0,5.0,7.0,7.0
3134,506.0,616.0,470.0,5.0,6.0,6.0
3135,506.0,616.0,470.0,5.0,6.0,7.0
3136,505.0,617.0,470.0,5.0,6.0,7.0
3137,505.0,616.0,469.0,4.0,6.0,6.0
3138,505.0,616.0,470.0,5.0,7.0,6.0
3139,505.0,616.0,470.0,4.0,6.0,6.0
3140,505.0,616.0,470.0,5.0,6.0,7.0
3141,505.0,617.0,470.0,5.0,6.0,7.0
3142,506.0,616.0,469.0,5.0,6.0,6.0
3143,506.0,616.0,470.0,5.0,6.0,6.0
3144,505.0,617.0,470.0,4.0,6.0,6.0
3145,505.0,616.0,470.0,4.0,6.0,7.0
3146,505.0,617.0,470.0,5.0,6.0,6.0
3147,505.0,616.0,470.0,5.0,6.0,6.0
3148,505.0,617.0,470.0,5.0,6.0,5.0
3149,505.0,617.0,470.0,5.0,6.0,6.0
3150,505.0,616.0,469.0,5.0,6.0,6.0
3151,505.0,617.0,470.0,5.0,6.0,6.0
3152,505.0,617.0,470.0,5.0,6.0,6.0
3153,505.0,617.0,470.0,4.0,6.0,6.0
3154,505.0,617.0,470.0,5.0,6.0,6.0
3155,505.0,616.0,470.0,5.0,6.0,6.0
3156,505.0,617.0,470.0,5.0,6.0,6.0
3157,505.0,617.0,470.0,5.0,6.0,6.0
3158,505.0,617.0,470.0,4.0,6.0,6.0
3159,505.0,617.0,470.0,4.0,6.0,6.0
3160,506.0,616.0,470.0,5.0,6.0,6.0
3161,505.0,616.0,470.0,5.0,6.0,6.0
3162,505.0,616.0,470.0,5.0,6.0,6.0
3163,505.0,617.0,470.0,5.0,6.0,6.0
3164,505.0,617.0,470.0,5.0,6.0,6.0
3165,505.0,616.0,470.0,4.0,6.0,6.0
3166,505.0,617.0,470.0,5.0,6.0,6.0
3167,505.0,617.0,470.0,5.0,6.0,6.0
3168,505.0,617.0,470.0,5.0,6.0,6.0
3169,505.0,616.0,470.0,4.0,6.0,6.0
3170,505.0,616.0,470.0,4.0,6.0,5.0
3171,505.0,617.0,470.0,5.0,6.0,6.0
3172,505.0,616.0,470.0,4.0,7.0,6.0
3173,505.0,616.0,470.0,5.0,6.0,6.0
3174,505.0,617.0,470.0,5.0,6.0,6.0
3175,505.0,616.0,470.0,4.0,6.0,6.0
3176,505.0,616.0,470.0,5.0,6.0,6.0
3177,505.0,617.0,470.0,5.0,6.0,6.0
3178,505.0,617.0,469.0,5.0,6.0,6.0
3179,505.0,616.0,469.0,5.0,6.0,6.0
3180,506.0,617.0,470.0,4.0,6.0,8.0
3181,505.0,617.0,470.0,4.0,6.0,6.0
3182,505.0,617.0,470.0,5.0,6.0,6.0
3183,505.0,617.0,470.0,5.0,5.0,6.0
3184,505.0,617.0,470.0,5.0,6.0,6.0
3185,505.0,617.0,470.0,5.0,6.0,6.0
3186,505.0,617.0,470.0,5.0,6.0,6.0
3187,505.0,616.0,469.0,4.0,6.0,6.0
3188,506.0,617.0,470.0,4.0,6.0,6.0
3189,505.0,616.0,469.0,5.0,6.0,6.0
3190,505.0,617.0,470.0,4.0,6.0,6.0
3191,505.0,616.0,470.0,5.0,6.0,6.0
3192,505.0,617.0,470.0,5.0,6.0,6.0
3193,505.0,617.0,470.0,4.0,6.0,6.0
3194,505.0,617.0,470.0,5.0,6.0,7.0
3195,505.0,617.0,470.0,4.0,6.0,6.0
3196,505.0,617.0,469.0,4.0,5.0,6.0
3197,505.0,617.0,470.0,4.0,6.0,6.0
3198,505.0,617.0,469.0,4.0,6.0,5.0
3199,505.0,616.0,470.0,5.0,6.0,6.0
3200,505.0,616.0,470.0,5.0,6.0,6.0
3201,505.0,617.0,470.0,4.0,6.0,6.0
3202,505.0,617.0,469.0,4.0,6.0,6.0
3203,505.0,617.0,470.0,5.0,6.0,6.0
3204,505.0,617.0,470.0,4.0,6.0,6.0
3205,505.0,617.0,470.0,4.0,5.0,5.0
3206,505.0,616.0,470.0,4.0,6.0,6.0
3207,505.0,616.0,470.0,4.0,6.0,6.0
3208,505.0,617.0,470.0,5.0,6.0,6.0
3209,505.0,617.0,470.0,4.0,6.0,6.0
3210,506.0,617.0,469.0,4.0,6.0,6.0
3211,505.0,617.0,470.0,4.0,6.0,6.0
3212,505.0,617.0,470.0,5.0,5.0,6.0
3213,505.0,616.0,470.0,5.0,6.0,6.0
3214,505.0,616.0,470.0,4.0,6.0,5.0
3215,505.0,617.0,470.0,5.0,6.0,6.0
3216,505.0,617.0,470.0,5.0,5.0,6.0
3217,505.0,616.0,470.0,4.0,6.0,6.0
3218,506.0,616.0,470.0,4.0,6.0,6.0
3219,505.0,616.0,470.0,4.0,5.0,6.0
3220,505.0,617.0,470.0,4.0,6.0,6.0
3221,505.0,616.0,470.0,4.0,6.0,6.0
3222,505.0,616.0,470.0,4.0,6.0,6.0
3223,505.0,617.0,470.0,4.0,6.0,6.0
3224,505.0,616.0,470.0,4.0,5.0,6.0
3225,505.0,617.0,470.0,4.0,6.0,5.0
3226,505.0,617.0,470.0,4.0,6.0,5.0
3227,505.0,617.0,469.0,4.0,6.0,5.0
3228,505.0,617.0,470.0,4.0,5.0,6.0
3229,505.0,616.0,470.0,4.0,6.0,5.0
3230,505.0,616.0,470.0,4.0,6.0,6.0
3231,505.0,617.0,470.0,5.0,6.0,6.0
3232,505.0,617.0,470.0,4.0,6.0,6.0
3233,505.0,616.0,469.0,4.0,5.0,5.0
3234,505.0,617.0,470.0,4.0,6.0,5.0
3235,505.0,616.0,470.0,4.0,6.0,6.0
3236,505.0,616.0,470.0,5.0,5.0,5.0
3237,505.0,617.0,470.0,4.0,6.0,5.0
3238,505.0,617.0,470.0,4.0,6.0,6.0
3239,506.0,616.0,469.0,4.0,6.0,5.0
3240,506.0,616.0,470.0,5.0,6.0,5.0
3241,505.0,617.0,470.0,5.0,6.0,6.0
3242,505.0,617.0,470.0,4.0,5.0,5.0
3243,505.0,616.0,470.0,4.0,6.0,5.0
3244,505.0,616.0,470.0,4.0,6.0,5.0
3245,505.0,616.0,470.0,4.0,5.0,6.0
3246,505.0,617.0,470.0,5.0,5.0,6.0
3247,506.0,616.0,470.0,4.0,5.0,6.0
3248,506.0,616.0,469.0,4.0,6.0,5.0
3249,505.0,617.0,470.0,4.0,6.0,6.0
3250,505.0,617.0,470.0,2.0,6.0,6.0
3251,505.0,617.0,470.0,4.0,5.0,6.0
3252,506.0,616.0,470.0,4.0,5.0,5.0
3253,505.0,616.0,470.0,5.0,6.0,6.0
3254,505.0,616.0,470.0,5.0,6.0,6.0
3255,505.0,617.0,470.0,4.0,5.0,5.0
3256,505.0,617.0,470.0,4.0,6.0,5.0
3257,505.0,617.0,470.0,4.0,5.0,6.0
3258,505.0,617.0,470.0,4.0,6.0,5.0
3259,505.0,617.0,469.0,5.0,6.0,5.0
3260,505.0,616.0,470.0,5.0,6.0,5.0
3261,505.0,617.0,470.0,5.0,5.0,5.0
3262,506.0,617.0,470.0,4.0,5.0,5.0
3263,505.0,616.0,470.0,4.0,6.0,5.0
3264,505.0,616.0,470.0,4.0,5.0,6.0
3265,506.0,616.0,470.0,4.0,5.0,7.0
3266,505.0,616.0,470.0,4.0,5.0,7.0
3267,505.0,616.0,470.0,4.0,5.0,7.0
3268,505.0,616.0,470.0,5.0,6.0,7.0
3269,505.0,617.0,470.0,4.0,6.0,7.0
3270,506.0,616.0,470.0,4.0,5.0,7.0
3271,506.0,617.0,470.0,5.0,6.0,7.0
3272,505.0,616.0,470.0,4.0,5.0,7.0
3273,505.0,617.0,470.0,5.0,5.0,7.0
3274,505.0,617.0,470.0,4.0,5.0,7.0
3275,505.0,617.0,470.0,4.0,5.0,7.0
3276,505.0,616.0,470.0,4.0,5.0,7.0
3277,505.0,617.0,469.0,4.0,6.0,7.0
3278,505.0,617.0,470.0,4.0,6.0,7.0
3279,505.0,617.0,469.0,4.0,5.0,6.0
3280,505.0,617.0,470.0,4.0,5.0,7.0
3281,505.0,617.0,469.0,4.0,6.0,6.0
3282,505.0,616.0,470.0,4.0,5.0,7.0
3283,505.0,617.0,470.0,5.0,6.0,6.0
3284,505.0,616.0,470.0,5.0,5.0,7.0
3285,505.0,617.0,470.0,4.0,5.0,7.0
3286,505.0,617.0,470.0,4.0,5.0,7.0
3287,505.0,616.0,470.0,4.0,5.0,6.0
3288,505.0,617.0,469.0,4.0,5.0,6.0
3289,506.0,616.0,470.0,4.0,5.0,7.0
3290,506.0,616.0,469.0,4.0,5.0,7.0
3291,506.0,616.0,470.0,4.0,5.0,7.0
3292,506.0,616.0,470.0,4.0,5.0,6.0
3293,505.0,617.0,470.0,5.0,6.0,6.0
3294,506.0,616.0,470.0,4.0,5.0,6.0
3295,505.0,617.0,469.0,4.0,5.0,6.0
3296,505.0,617.0,470.0,4.0,5.0,7.0
3297,505.0,616.0,469.0,4.0,5.0,6.0
3298,505.0,616.0,470.0,5.0,5.0,6.0
3299,505.0,617.0,470.0,4.0,5.0,6.0
3300,506.0,616.0,469.0,3.0,5.0,6.0
3301,505.0,616.0,470.0,4.0,5.0,6.0
3302,505.0,617.0,470.0,4.0,5.0,6.0
3303,505.0,617.0,469.0,4.0,5.0,6.0
3304,505.0,617.0,470.0,4.0,5.0,6.0
3305,505.0,616.0,470.0,5.0,5.0,6.0
3306,506.0,617.0,470.0,4.0,6.0,6.0
3307,506.0,617.0,470.0,4.0,5.0,6.0
3308,505.0,616.0,469.0,4.0,6.0,6.0
3309,506.0,617.0,470.0,5.0,6.0,6.0
3310,505.0,617.0,470.0,5.0,5.0,6.0
3311,505.0,617.0,470.0,5.0,6.0,6.0
3312,505.0,617.0,469.0,4.0,6.0,6.0
3313,505.0,617.0,470.0,4.0,5.0,6.0
3314,506.0,616.0,470.0,5.0,5.0,6.0
3315,506.0,616.0,470.0,4.0,6.0,6.0
3316,505.0,617.0,470.0,4.0,5.0,6.0
3317,505.0,617.0,470.0,4.0,6.0,6.0
3318,505.0,616.0,469.0,4.0,5.0,6.0
3319,506.0,616.0,470.0,4.0,5.0,6.0
3320,505.0,617.0,470.0,4.0,6.0,6.0
3321,505.0,617.0,470.0,4.0,6.0,6.0
3322,505.0,617.0,470.0,4.0,5.0,6.0
3323,505.0,617.0,470.0,4.0,5.0,6.0
3324,505.0,617.0,470.0,4.0,6.0,6.0
3325,505.0,616.0,470.0,4.0,5.0,6.0
3326,505.0,616.0,470.0,4.0,6.0,6.0
3327,505.0,616.0,470.0,4.0,5.0,6.0
3328,506.0,616.0,470.0,4.0,5.0,6.0
3329,506.0,617.0,470.0,4.0,6.0,6.0
3330,505.0,617.0,470.0,4.0,5.0,5.0
3331,505.0,617.0,470.0,4.0,5.0,6.0
3332,505.0,617.0,469.0,4.0,5.0,5.0
3333,505.0,616.0,470.0,4.0,5.0,6.0
3334,505.0,616.0,469.0,4.0,5.0,6.0
3335,505.0,617.0,470.0,5.0,6.0,5.0
3336,506.0,617.0,469.0,5.0,5.0,6.0
3337,505.0,617.0,469.0,4.0,5.0,6.0
3338,506.0,617.0,470.0,5.0,5.0,6.0
3339,505.0,617.0,469.0,4.0,5.0,6.0
3340,505.0,617.0,470.0,4.0,5.0,6.0
3341,505.0,617.0,468.0,4.0,5.0,6.0
3342,505.0,617.0,469.0,5.0,5.0,6.0
3343,506.0,617.0,470.0,4.0,5.0,6.0
3344,506.0,617.0,470.0,4.0,5.0,5.0
3345,506.0,616.0,470.0,5.0,5.0,5.0
3346,505.0,616.0,469.0,5.0,5.0,5.0
3347,505.0,616.0,470.0,5.0,5.0,6.0
3348,505.0,616.0,470.0,5.0,5.0,6.0
3349,505.0,616.0,470.0,4.0,5.0,6.0
3350,506.0,616.0,470.0,4.0,6.0,6.0
3351,506.0,616.0,470.0,4.0,5.0,6.0
3352,506.0,616.0,470.0,4.0,5.0,6.0
3353,505.0,616.0,470.0,4.0,5.0,6.0
3354,505.0,616.0,470.0,5.0,5.0,6.0
3355,505.0,616.0,470.0,4.0,5.0,6.0
3356,505.0,616.0,470.0,4.0,5.0,6.0
3357,505.0,616.0,470.0,4.0,5.0,5.0
3358,505.0,617.0,470.0,5.0,5.0,6.0
3359,506.0,616.0,470.0,5.0,5.0,6.0
3360,505.0,617.0,470.0,4.0,6.0,6.0
3361,505.0,617.0,469.0,4.0,5.0,6.0
3362,505.0,617.0,469.0,4.0,5.0,6.0
3363,505.0,617.0,469.0,4.0,5.0,6.0
3364,505.0,617.0,469.0,4.0,5.0,6.0
3365,505.0,617.0,470.0,4.0,5.0,6.0
3366,505.0,617.0,470.0,4.0,5.0,6.0
3367,505.0,617.0,469.0,4.0,5.0,6.0
3368,505.0,617.0,470.0,4.0,4.0,6.0
3369,505.0,616.0,470.0,4.0,5.0,6.0
3370,506.0,616.0,470.0,4.0,5.0,6.0
3371,506.0,616.0,469.0,5.0,5.0,5.0
3372,505.0,616.0,470.0,4.0,5.0,5.0
3373,505.0,616.0,470.0,4.0,5.0,6.0
3374,505.0,616.0,470.0,4.0,5.0,6.0
3375,505.0,616.0,469.0,4.0,5.0,6.0
3376,505.0,616.0,469.0,4.0,5.0,6.0
3377,505.0,617.0,470.0,4.0,5.0,6.0
3378,505.0,616.0,470.0,4.0,5.0,6.0
3379,505.0,617.0,469.0,4.0,5.0,5.0
3380,505.0,617.0,470.0,4.0,5.0,6.0
3381,505.0,617.0,470.0,4.0,5.0,6.0
3382,505.0,616.0,470.0,5.0,5.0,7.0
3383,505.0,617.0,470.0,4.0,5.0,6.0
3384,505.0,617.0,470.0,4.0,5.0,6.0
3385,505.0,616.0,469.0,5.0,5.0,6.0
3386,505.0,617.0,470.0,4.0,5.0,6.0
3387,505.0,617.0,470.0,4.0,5.0,6.0
3388,505.0,616.0,470.0,4.0,5.0,6.0
3389,505.0,617.0,470.0,4.0,5.0,6.0
3390,505.0,617.0,470.0,5.0,5.0,6.0
3391,505.0,617.0,470.0,4.0,5.0,6.0
3392,505.0,617.0,470.0,4.0,5.0,6.0
3393,505.0,616.0,470.0,4.0,5.0,6.0
3394,505.0,616.0,470.0,4.0,5.0,6.0
3395,505.0,616.0,470.0,4.0,5.0,6.0
3396,506.0,616.0,470.0,4.0,5.0,6.0
3397,505.0,616.0,470.0,4.0,5.0,6.0
3398,505.0,616.0,470.0,4.0,5.0,5.0
3399,505.0,617.0,469.0,4.0,5.0,6.0
3400,505.0,617.0,470.0,4.0,5.0,6.0
3401,505.0,617.0,469.0,4.0,5.0,6.0
3402,505.0,617.0,470.0,4.0,5.0,6.0
3403,505.0,617.0,470.0,4.0,5.0,5.0
3404,505.0,617.0,470.0,4.0,5.0,6.0
3405,505.0,617.0,470.0,4.0,6.0,5.0
3406,505.0,616.0,470.0,4.0,6.0,6.0
3407,505.0,616.0,470.0,5.0,5.0,6.0
3408,506.0,617.0,469.0,5.0,6.0,6.0
3409,505.0,617.0,469.0,5.0,5.0,6.0
3410,506.0,617.0,470.0,4.0,6.0,5.0
3411,505.0,617.0,470.0,4.0,6.0,6.0
3412,505.0,617.0,470.0,4.0,6.0,6.0
3413,506.0,617.0,470.0,5.0,5.0,6.0
3414,505.0,617.0,470.0,5.0,6.0,6.0
3415,505.0,616.0,470.0,5.0,5.0,6.0
3416,505.0,616.0,470.0,5.0,6.0,5.0
3417,505.0,616.0,470.0,5.0,6.0,5.0
3418,505.0,617.0,470.0,4.0,6.0,5.0
3419,505.0,617.0,469.0,4.0,6.0,6.0
3420,505.0,616.0,470.0,4.0,6.0,5.0
3421,505.0,616.0,470.0,4.0,6.0,5.0
3422,505.0,616.0,469.0,4.0,6.0,6.0
3423,505.0,617.0,470.0,5.0,6.0,5.0
3424,505.0,616.0,469.0,4.0,6.0,5.0
3425,506.0,616.0,470.0,4.0,6.0,6.0
3426,506.0,616.0,470.0,5.0,6.0,6.0
3427,506.0,616.0,470.0,5.0,6.0,6.0
3428,506.0,617.0,470.0,4.0,6.0,6.0
3429,505.0,617.0,470.0,5.0,6.0,6.0
3430,505.0,617.0,470.0,5.0,6.0,6.0
3431,505.0,616.0,470.0,4.0,6.0,6.0
3432,505.0,616.0,470.0,5.0,8.0,5.0
3433,505.0,616.0,470.0,4.0,6.0,6.0
3434,506.0,616.0,470.0,4.0,6.0,6.0
3435,506.0,616.0,470.0,4.0,7.0,5.0
3436,505.0,617.0,469.0,4.0,6.0,5.0
3437,505.0,617.0,470.0,5.0,6.0,6.0
3438,505.0,617.0,470.0,5.0,6.0,6.0
3439,505.0,617.0,470.0,4.0,6.0,5.0
