,x,y,z,muscle1,muscle2,muscle3
0,564.0,568.0,504.0,13.0,12.0,11.0
1,568.0,570.0,505.0,13.0,12.0,12.0
2,570.0,571.0,505.0,13.0,12.0,12.0
3,571.0,572.0,505.0,13.0,13.0,12.0
4,572.0,572.0,506.0,13.0,12.0,11.0
5,572.0,572.0,506.0,13.0,12.0,12.0
6,572.0,572.0,507.0,13.0,12.0,12.0
7,572.0,572.0,506.0,12.0,11.0,12.0
8,572.0,572.0,506.0,12.0,12.0,11.0
9,572.0,572.0,506.0,12.0,11.0,11.0
10,572.0,572.0,506.0,12.0,12.0,11.0
11,572.0,571.0,506.0,12.0,12.0,10.0
12,571.0,571.0,506.0,12.0,11.0,11.0
13,571.0,570.0,507.0,12.0,11.0,11.0
14,570.0,569.0,507.0,11.0,11.0,11.0
15,569.0,568.0,507.0,12.0,11.0,11.0
16,568.0,567.0,507.0,12.0,11.0,11.0
17,567.0,567.0,507.0,11.0,11.0,10.0
18,567.0,567.0,507.0,12.0,11.0,11.0
19,567.0,565.0,507.0,11.0,11.0,11.0
20,565.0,565.0,507.0,12.0,11.0,10.0
21,565.0,564.0,507.0,11.0,11.0,11.0
22,564.0,564.0,507.0,11.0,11.0,10.0
23,564.0,564.0,507.0,11.0,10.0,10.0
24,564.0,564.0,506.0,11.0,10.0,10.0
25,564.0,564.0,506.0,11.0,10.0,10.0
26,564.0,565.0,507.0,11.0,10.0,10.0
27,565.0,565.0,507.0,11.0,10.0,10.0
28,565.0,566.0,507.0,11.0,10.0,10.0
29,566.0,567.0,508.0,11.0,10.0,10.0
30,567.0,567.0,508.0,11.0,10.0,10.0
31,567.0,569.0,508.0,10.0,10.0,9.0
32,569.0,569.0,508.0,10.0,10.0,10.0
33,569.0,570.0,508.0,11.0,10.0,10.0
34,570.0,570.0,509.0,10.0,10.0,10.0
35,570.0,570.0,508.0,10.0,10.0,9.0
36,570.0,570.0,509.0,11.0,9.0,10.0
37,570.0,571.0,508.0,11.0,9.0,9.0
38,571.0,571.0,509.0,10.0,9.0,9.0
39,571.0,571.0,509.0,10.0,9.0,9.0
40,571.0,571.0,509.0,11.0,9.0,9.0
41,571.0,572.0,509.0,10.0,9.0,9.0
42,572.0,572.0,509.0,9.0,9.0,10.0
43,572.0,572.0,509.0,10.0,9.0,9.0
44,572.0,571.0,508.0,9.0,9.0,9.0
45,571.0,572.0,509.0,9.0,9.0,9.0
46,572.0,572.0,508.0,10.0,8.0,8.0
47,572.0,571.0,508.0,9.0,9.0,8.0
48,571.0,571.0,507.0,9.0,9.0,8.0
49,571.0,571.0,508.0,10.0,9.0,8.0
50,571.0,571.0,507.0,9.0,9.0,9.0
51,571.0,570.0,507.0,9.0,8.0,9.0
52,570.0,570.0,509.0,8.0,8.0,9.0
53,570.0,570.0,508.0,9.0,9.0,9.0
54,570.0,569.0,507.0,9.0,9.0,8.0
55,569.0,569.0,508.0,10.0,9.0,8.0
56,569.0,570.0,508.0,9.0,8.0,8.0
57,570.0,569.0,508.0,9.0,8.0,8.0
58,569.0,568.0,509.0,9.0,8.0,8.0
59,568.0,568.0,510.0,8.0,8.0,7.0
60,568.0,567.0,510.0,9.0,9.0,8.0
61,567.0,567.0,510.0,8.0,8.0,8.0
62,567.0,567.0,511.0,9.0,8.0,8.0
63,567.0,566.0,511.0,9.0,8.0,8.0
64,566.0,566.0,511.0,9.0,8.0,8.0
65,566.0,566.0,511.0,8.0,8.0,8.0
66,566.0,566.0,512.0,8.0,8.0,7.0
67,566.0,566.0,512.0,9.0,7.0,7.0
68,566.0,566.0,512.0,8.0,7.0,8.0
69,566.0,567.0,511.0,8.0,8.0,7.0
70,567.0,567.0,512.0,8.0,8.0,7.0
71,567.0,567.0,512.0,8.0,7.0,7.0
72,567.0,567.0,512.0,7.0,7.0,8.0
73,567.0,567.0,512.0,8.0,7.0,8.0
74,567.0,567.0,512.0,8.0,7.0,7.0
75,567.0,567.0,512.0,8.0,7.0,7.0
76,567.0,567.0,512.0,9.0,7.0,7.0
77,567.0,567.0,513.0,8.0,7.0,7.0
78,567.0,566.0,513.0,8.0,8.0,8.0
79,566.0,566.0,514.0,9.0,7.0,8.0
80,566.0,565.0,515.0,7.0,7.0,7.0
81,565.0,565.0,515.0,7.0,7.0,7.0
82,565.0,564.0,515.0,7.0,7.0,7.0
83,564.0,563.0,515.0,7.0,8.0,7.0
84,563.0,563.0,515.0,7.0,7.0,7.0
85,563.0,563.0,515.0,7.0,7.0,7.0
86,563.0,563.0,515.0,7.0,7.0,7.0
87,563.0,563.0,514.0,7.0,7.0,7.0
88,563.0,564.0,515.0,8.0,8.0,7.0
89,564.0,565.0,514.0,7.0,7.0,7.0
90,565.0,566.0,514.0,7.0,7.0,7.0
91,566.0,567.0,514.0,7.0,7.0,7.0
92,567.0,569.0,513.0,6.0,7.0,7.0
93,569.0,569.0,513.0,8.0,7.0,7.0
94,569.0,570.0,513.0,7.0,7.0,7.0
95,570.0,572.0,514.0,6.0,7.0,6.0
96,572.0,574.0,514.0,7.0,7.0,7.0
97,574.0,575.0,515.0,7.0,7.0,7.0
98,575.0,576.0,515.0,7.0,6.0,7.0
99,576.0,576.0,516.0,7.0,6.0,7.0
100,576.0,577.0,517.0,7.0,7.0,7.0
101,577.0,576.0,516.0,8.0,7.0,6.0
102,576.0,576.0,516.0,6.0,7.0,7.0
103,576.0,576.0,517.0,7.0,7.0,7.0
104,576.0,577.0,517.0,6.0,7.0,6.0
105,577.0,577.0,517.0,6.0,7.0,7.0
106,577.0,577.0,517.0,7.0,6.0,6.0
107,577.0,578.0,518.0,7.0,6.0,0.0
108,590.0,590.0,549.0,5.0,4.0,4.0
109,590.0,590.0,549.0,4.0,4.0,4.0
110,590.0,590.0,549.0,4.0,4.0,4.0
111,590.0,590.0,549.0,4.0,4.0,4.0
112,590.0,591.0,550.0,4.0,4.0,4.0
113,591.0,591.0,550.0,4.0,4.0,4.0
114,591.0,591.0,550.0,5.0,4.0,4.0
115,591.0,592.0,550.0,4.0,4.0,4.0
116,592.0,592.0,550.0,4.0,4.0,4.0
117,592.0,592.0,550.0,4.0,4.0,4.0
118,592.0,592.0,550.0,4.0,4.0,4.0
119,592.0,592.0,550.0,4.0,4.0,4.0
120,592.0,591.0,551.0,3.0,3.0,4.0
121,591.0,591.0,550.0,4.0,4.0,4.0
122,591.0,591.0,551.0,4.0,4.0,4.0
123,591.0,590.0,550.0,4.0,4.0,5.0
124,590.0,590.0,551.0,4.0,3.0,4.0
125,590.0,590.0,550.0,4.0,4.0,5.0
126,590.0,590.0,550.0,4.0,4.0,4.0
127,590.0,590.0,551.0,4.0,4.0,4.0
128,590.0,589.0,551.0,4.0,4.0,4.0
129,589.0,589.0,550.0,4.0,3.0,4.0
130,589.0,589.0,550.0,4.0,4.0,4.0
131,589.0,588.0,550.0,4.0,4.0,3.0
132,588.0,588.0,550.0,4.0,4.0,4.0
133,588.0,588.0,550.0,4.0,4.0,4.0
134,588.0,588.0,549.0,4.0,4.0,4.0
135,588.0,587.0,550.0,3.0,3.0,4.0
136,587.0,588.0,550.0,4.0,4.0,4.0
137,588.0,587.0,550.0,5.0,4.0,4.0
138,587.0,586.0,549.0,4.0,4.0,4.0
139,586.0,586.0,549.0,4.0,4.0,4.0
140,586.0,586.0,549.0,4.0,4.0,4.0
141,586.0,585.0,549.0,4.0,4.0,4.0
142,585.0,585.0,549.0,4.0,3.0,4.0
143,585.0,584.0,549.0,4.0,4.0,4.0
144,584.0,584.0,549.0,4.0,4.0,4.0
145,584.0,583.0,547.0,4.0,4.0,4.0
146,583.0,583.0,548.0,4.0,4.0,4.0
147,583.0,584.0,548.0,4.0,4.0,3.0
148,584.0,585.0,548.0,4.0,4.0,4.0
149,585.0,586.0,549.0,4.0,3.0,4.0
150,586.0,586.0,550.0,4.0,4.0,4.0
151,586.0,586.0,550.0,4.0,4.0,4.0
152,586.0,587.0,549.0,4.0,4.0,4.0
153,587.0,588.0,549.0,4.0,4.0,4.0
154,588.0,589.0,549.0,4.0,4.0,4.0
155,589.0,590.0,550.0,4.0,4.0,4.0
156,590.0,590.0,550.0,4.0,3.0,4.0
157,590.0,591.0,549.0,4.0,3.0,5.0
158,591.0,592.0,549.0,4.0,3.0,4.0
159,592.0,592.0,549.0,4.0,4.0,4.0
160,592.0,591.0,549.0,4.0,4.0,4.0
161,591.0,592.0,548.0,4.0,4.0,4.0
162,592.0,591.0,548.0,4.0,4.0,4.0
163,591.0,592.0,548.0,4.0,4.0,3.0
164,592.0,592.0,548.0,4.0,3.0,5.0
165,592.0,594.0,549.0,4.0,4.0,4.0
166,594.0,594.0,549.0,4.0,4.0,4.0
167,594.0,595.0,549.0,4.0,4.0,4.0
168,595.0,596.0,550.0,4.0,4.0,4.0
169,596.0,597.0,550.0,4.0,3.0,4.0
170,597.0,598.0,552.0,4.0,4.0,4.0
171,598.0,598.0,551.0,4.0,4.0,4.0
172,598.0,598.0,552.0,3.0,4.0,4.0
173,598.0,598.0,552.0,4.0,4.0,4.0
174,598.0,597.0,552.0,4.0,4.0,3.0
175,597.0,598.0,552.0,4.0,4.0,4.0
176,598.0,598.0,552.0,4.0,4.0,4.0
177,598.0,597.0,552.0,4.0,4.0,4.0
178,597.0,597.0,552.0,3.0,4.0,4.0
179,597.0,596.0,553.0,4.0,4.0,4.0
180,596.0,595.0,553.0,4.0,3.0,4.0
181,595.0,595.0,553.0,4.0,4.0,4.0
182,595.0,594.0,553.0,3.0,4.0,4.0
183,594.0,594.0,553.0,3.0,4.0,4.0
184,594.0,594.0,554.0,4.0,4.0,4.0
185,594.0,595.0,554.0,4.0,4.0,4.0
186,595.0,594.0,555.0,4.0,4.0,4.0
187,594.0,594.0,556.0,4.0,4.0,4.0
188,594.0,594.0,556.0,4.0,4.0,4.0
189,594.0,593.0,556.0,4.0,4.0,4.0
190,593.0,592.0,556.0,4.0,4.0,4.0
191,592.0,592.0,555.0,4.0,4.0,4.0
192,592.0,591.0,555.0,4.0,4.0,4.0
193,591.0,591.0,555.0,4.0,4.0,4.0
194,591.0,591.0,554.0,4.0,3.0,4.0
195,591.0,591.0,554.0,3.0,4.0,4.0
196,591.0,591.0,554.0,3.0,4.0,4.0
197,591.0,592.0,556.0,4.0,4.0,4.0
198,592.0,592.0,556.0,4.0,4.0,4.0
199,592.0,593.0,556.0,4.0,3.0,4.0
200,593.0,593.0,557.0,4.0,4.0,4.0
201,593.0,593.0,557.0,4.0,4.0,4.0
202,593.0,593.0,557.0,4.0,4.0,4.0
203,593.0,592.0,557.0,4.0,4.0,4.0
204,592.0,592.0,557.0,5.0,5.0,4.0
205,592.0,593.0,557.0,5.0,4.0,4.0
206,593.0,593.0,557.0,4.0,4.0,4.0
207,593.0,594.0,557.0,5.0,5.0,4.0
208,594.0,595.0,557.0,4.0,4.0,4.0
209,595.0,594.0,558.0,4.0,4.0,4.0
210,594.0,595.0,557.0,4.0,4.0,4.0
211,595.0,594.0,557.0,5.0,5.0,4.0
212,594.0,594.0,557.0,4.0,4.0,4.0
213,594.0,593.0,557.0,5.0,5.0,4.0
214,593.0,592.0,556.0,4.0,4.0,4.0
215,592.0,591.0,556.0,5.0,4.0,4.0
216,591.0,590.0,556.0,5.0,5.0,5.0
217,590.0,590.0,556.0,5.0,4.0,4.0
218,590.0,590.0,556.0,5.0,4.0,4.0
219,590.0,590.0,556.0,4.0,4.0,5.0
220,590.0,589.0,555.0,4.0,4.0,4.0
221,589.0,590.0,556.0,4.0,4.0,4.0
222,590.0,591.0,555.0,5.0,5.0,4.0
223,591.0,591.0,555.0,5.0,4.0,4.0
224,591.0,591.0,555.0,5.0,4.0,4.0
225,591.0,591.0,555.0,5.0,4.0,4.0
226,591.0,592.0,555.0,4.0,4.0,4.0
227,592.0,591.0,553.0,5.0,5.0,5.0
228,591.0,591.0,553.0,4.0,4.0,4.0
229,591.0,591.0,553.0,4.0,3.0,4.0
230,591.0,591.0,553.0,4.0,4.0,4.0
231,591.0,592.0,553.0,4.0,4.0,4.0
232,592.0,591.0,553.0,4.0,4.0,4.0
233,591.0,591.0,553.0,4.0,4.0,4.0
234,591.0,591.0,553.0,4.0,5.0,4.0
235,591.0,590.0,553.0,5.0,4.0,4.0
236,590.0,590.0,554.0,4.0,4.0,4.0
237,590.0,590.0,554.0,5.0,3.0,4.0
238,590.0,590.0,554.0,4.0,4.0,5.0
239,590.0,590.0,554.0,5.0,4.0,4.0
240,590.0,591.0,555.0,4.0,4.0,4.0
241,591.0,591.0,555.0,4.0,4.0,4.0
242,591.0,591.0,555.0,4.0,5.0,4.0
243,591.0,591.0,555.0,4.0,4.0,4.0
244,591.0,590.0,555.0,5.0,3.0,4.0
245,590.0,590.0,555.0,5.0,4.0,4.0
246,590.0,590.0,555.0,4.0,4.0,4.0
247,590.0,591.0,555.0,5.0,4.0,4.0
248,591.0,591.0,555.0,4.0,4.0,4.0
249,591.0,592.0,555.0,5.0,4.0,5.0
250,592.0,592.0,554.0,5.0,4.0,4.0
251,592.0,592.0,554.0,5.0,4.0,4.0
252,592.0,593.0,554.0,4.0,4.0,4.0
253,593.0,593.0,554.0,4.0,4.0,5.0
254,593.0,594.0,553.0,4.0,4.0,4.0
255,594.0,595.0,554.0,4.0,4.0,5.0
256,595.0,595.0,554.0,4.0,4.0,4.0
257,595.0,595.0,554.0,3.0,4.0,4.0
258,595.0,596.0,554.0,4.0,4.0,4.0
259,596.0,595.0,554.0,4.0,4.0,4.0
260,595.0,596.0,554.0,4.0,5.0,4.0
261,596.0,596.0,554.0,4.0,4.0,4.0
262,596.0,596.0,554.0,4.0,4.0,4.0
263,596.0,595.0,554.0,4.0,3.0,4.0
264,595.0,593.0,554.0,4.0,4.0,4.0
265,593.0,592.0,553.0,4.0,4.0,4.0
266,592.0,592.0,553.0,4.0,4.0,4.0
267,592.0,591.0,553.0,4.0,4.0,4.0
268,591.0,591.0,553.0,4.0,4.0,4.0
269,591.0,592.0,553.0,4.0,4.0,4.0
270,592.0,591.0,553.0,4.0,5.0,4.0
271,591.0,592.0,554.0,4.0,4.0,4.0
272,592.0,592.0,554.0,4.0,4.0,4.0
273,592.0,592.0,555.0,4.0,4.0,4.0
274,592.0,592.0,555.0,4.0,3.0,4.0
275,592.0,593.0,555.0,4.0,4.0,4.0
276,593.0,593.0,555.0,5.0,4.0,4.0
277,593.0,593.0,555.0,4.0,4.0,4.0
278,593.0,594.0,555.0,4.0,4.0,4.0
279,594.0,594.0,556.0,4.0,4.0,4.0
280,594.0,594.0,556.0,4.0,4.0,5.0
281,594.0,594.0,556.0,4.0,4.0,4.0
282,594.0,594.0,555.0,5.0,4.0,4.0
283,594.0,595.0,556.0,4.0,4.0,4.0
284,595.0,595.0,556.0,4.0,4.0,4.0
285,595.0,596.0,556.0,4.0,4.0,4.0
286,596.0,596.0,556.0,4.0,4.0,4.0
287,596.0,596.0,555.0,4.0,4.0,4.0
288,596.0,596.0,555.0,4.0,4.0,5.0
289,596.0,597.0,555.0,5.0,4.0,4.0
290,597.0,597.0,555.0,4.0,4.0,4.0
291,597.0,597.0,554.0,5.0,4.0,4.0
292,597.0,597.0,555.0,4.0,4.0,4.0
293,597.0,597.0,554.0,4.0,4.0,4.0
294,597.0,596.0,554.0,4.0,4.0,4.0
295,596.0,596.0,554.0,4.0,4.0,4.0
296,596.0,595.0,553.0,5.0,4.0,4.0
297,595.0,595.0,553.0,4.0,3.0,4.0
298,595.0,594.0,552.0,5.0,4.0,4.0
299,594.0,593.0,552.0,4.0,4.0,4.0
300,593.0,593.0,552.0,4.0,4.0,4.0
301,593.0,592.0,552.0,5.0,4.0,4.0
302,592.0,592.0,552.0,4.0,4.0,4.0
303,592.0,591.0,552.0,5.0,4.0,4.0
304,591.0,590.0,552.0,4.0,3.0,4.0
305,590.0,590.0,551.0,5.0,4.0,4.0
306,590.0,590.0,551.0,4.0,4.0,3.0
307,590.0,589.0,551.0,4.0,3.0,4.0
308,589.0,589.0,551.0,4.0,4.0,4.0
309,589.0,589.0,551.0,4.0,4.0,4.0
310,589.0,589.0,551.0,5.0,4.0,4.0
311,589.0,589.0,551.0,5.0,4.0,4.0
312,589.0,589.0,551.0,4.0,4.0,4.0
313,589.0,589.0,551.0,4.0,4.0,4.0
314,589.0,588.0,551.0,4.0,4.0,4.0
315,588.0,589.0,551.0,4.0,4.0,5.0
316,589.0,590.0,550.0,4.0,4.0,4.0
317,590.0,589.0,552.0,4.0,4.0,4.0
318,589.0,590.0,551.0,4.0,4.0,4.0
319,590.0,590.0,551.0,4.0,4.0,4.0
320,590.0,590.0,551.0,4.0,11.0,4.0
321,590.0,590.0,550.0,4.0,13.0,4.0
322,590.0,590.0,550.0,4.0,12.0,4.0
323,590.0,590.0,550.0,5.0,12.0,4.0
324,590.0,590.0,550.0,4.0,13.0,3.0
325,590.0,591.0,549.0,4.0,12.0,4.0
326,591.0,591.0,549.0,4.0,12.0,4.0
327,591.0,592.0,549.0,4.0,12.0,4.0
328,592.0,591.0,549.0,5.0,12.0,4.0
329,591.0,592.0,550.0,5.0,12.0,4.0
330,592.0,593.0,551.0,5.0,11.0,4.0
331,593.0,593.0,551.0,4.0,12.0,4.0
332,593.0,595.0,551.0,5.0,11.0,4.0
333,595.0,595.0,551.0,4.0,11.0,4.0
334,595.0,596.0,552.0,4.0,12.0,4.0
335,596.0,597.0,552.0,5.0,12.0,4.0
336,597.0,597.0,552.0,4.0,11.0,5.0
337,597.0,598.0,552.0,5.0,11.0,3.0
338,598.0,598.0,553.0,5.0,12.0,4.0
339,598.0,598.0,552.0,5.0,11.0,4.0
340,598.0,598.0,553.0,5.0,11.0,4.0
341,598.0,599.0,553.0,4.0,11.0,4.0
342,599.0,599.0,553.0,5.0,10.0,4.0
343,599.0,598.0,553.0,5.0,11.0,4.0
344,598.0,599.0,552.0,5.0,11.0,4.0
345,599.0,598.0,553.0,5.0,11.0,4.0
346,598.0,598.0,552.0,5.0,11.0,4.0
347,598.0,598.0,553.0,5.0,10.0,3.0
348,598.0,598.0,552.0,4.0,11.0,4.0
349,598.0,598.0,553.0,5.0,10.0,4.0
350,598.0,598.0,553.0,5.0,10.0,4.0
351,598.0,598.0,553.0,4.0,10.0,4.0
352,598.0,599.0,553.0,4.0,10.0,5.0
353,599.0,599.0,553.0,5.0,10.0,5.0
354,599.0,599.0,553.0,5.0,10.0,4.0
355,599.0,599.0,553.0,5.0,10.0,4.0
356,599.0,599.0,552.0,5.0,10.0,4.0
357,599.0,599.0,553.0,4.0,11.0,4.0
358,599.0,598.0,552.0,5.0,10.0,4.0
359,598.0,598.0,552.0,5.0,11.0,4.0
360,598.0,598.0,552.0,5.0,9.0,4.0
361,598.0,598.0,552.0,5.0,9.0,4.0
362,598.0,598.0,553.0,5.0,10.0,4.0
363,598.0,598.0,553.0,5.0,10.0,4.0
364,598.0,598.0,554.0,5.0,9.0,4.0
365,598.0,597.0,554.0,5.0,10.0,4.0
366,597.0,597.0,554.0,5.0,10.0,4.0
367,597.0,598.0,554.0,5.0,9.0,4.0
368,598.0,597.0,554.0,5.0,10.0,4.0
369,597.0,598.0,554.0,4.0,9.0,4.0
370,598.0,598.0,555.0,4.0,10.0,4.0
371,598.0,598.0,556.0,5.0,10.0,4.0
372,598.0,595.0,555.0,4.0,9.0,4.0
373,595.0,595.0,555.0,4.0,10.0,3.0
374,595.0,595.0,554.0,5.0,9.0,4.0
375,595.0,596.0,554.0,5.0,9.0,4.0
376,596.0,596.0,554.0,4.0,9.0,4.0
377,596.0,596.0,554.0,4.0,9.0,4.0
378,596.0,596.0,553.0,5.0,7.0,4.0
379,596.0,595.0,553.0,5.0,9.0,4.0
380,595.0,595.0,553.0,5.0,8.0,4.0
381,595.0,595.0,553.0,5.0,9.0,4.0
382,595.0,595.0,552.0,5.0,8.0,4.0
383,595.0,595.0,552.0,4.0,8.0,4.0
384,595.0,595.0,552.0,5.0,8.0,4.0
385,595.0,595.0,552.0,5.0,8.0,4.0
386,595.0,596.0,551.0,5.0,9.0,4.0
387,596.0,597.0,551.0,5.0,8.0,4.0
388,597.0,597.0,551.0,4.0,8.0,4.0
389,597.0,597.0,551.0,4.0,8.0,4.0
390,597.0,598.0,551.0,4.0,8.0,4.0
391,598.0,598.0,552.0,3.0,8.0,4.0
392,598.0,599.0,552.0,4.0,8.0,4.0
393,599.0,599.0,552.0,4.0,8.0,4.0
394,599.0,599.0,552.0,5.0,8.0,4.0
395,599.0,599.0,552.0,5.0,8.0,4.0
396,599.0,599.0,552.0,4.0,8.0,4.0
397,599.0,598.0,552.0,4.0,7.0,4.0
398,598.0,599.0,553.0,4.0,7.0,4.0
399,599.0,599.0,553.0,4.0,7.0,4.0
400,599.0,598.0,553.0,5.0,7.0,3.0
401,598.0,598.0,553.0,5.0,7.0,5.0
402,598.0,598.0,553.0,4.0,7.0,4.0
403,598.0,598.0,553.0,5.0,7.0,4.0
404,598.0,598.0,552.0,4.0,7.0,4.0
405,598.0,597.0,552.0,4.0,8.0,4.0
406,597.0,596.0,552.0,4.0,7.0,4.0
407,596.0,596.0,552.0,4.0,7.0,4.0
408,596.0,597.0,552.0,4.0,7.0,4.0
409,597.0,597.0,552.0,5.0,16.0,4.0
410,597.0,596.0,553.0,4.0,15.0,4.0
411,596.0,597.0,552.0,4.0,15.0,4.0
412,597.0,597.0,552.0,5.0,15.0,4.0
413,597.0,597.0,552.0,4.0,14.0,4.0
414,597.0,597.0,552.0,4.0,15.0,4.0
415,597.0,597.0,552.0,4.0,14.0,4.0
416,597.0,598.0,552.0,4.0,15.0,4.0
417,598.0,597.0,553.0,5.0,14.0,4.0
418,597.0,597.0,552.0,4.0,14.0,4.0
419,597.0,597.0,552.0,5.0,13.0,3.0
420,597.0,597.0,553.0,5.0,14.0,4.0
421,597.0,597.0,553.0,4.0,14.0,4.0
422,597.0,596.0,552.0,5.0,14.0,4.0
423,596.0,597.0,552.0,4.0,13.0,4.0
424,597.0,597.0,552.0,5.0,13.0,4.0
425,597.0,596.0,552.0,4.0,13.0,4.0
426,596.0,597.0,553.0,4.0,13.0,4.0
427,597.0,597.0,553.0,5.0,13.0,4.0
428,597.0,596.0,553.0,4.0,13.0,4.0
429,596.0,596.0,553.0,4.0,13.0,4.0
430,596.0,596.0,553.0,4.0,13.0,4.0
431,596.0,596.0,553.0,4.0,13.0,4.0
432,596.0,594.0,553.0,5.0,12.0,3.0
433,594.0,593.0,552.0,5.0,12.0,4.0
434,593.0,593.0,552.0,5.0,12.0,4.0
435,593.0,593.0,552.0,4.0,12.0,4.0
436,593.0,594.0,552.0,4.0,12.0,4.0
437,594.0,595.0,553.0,4.0,12.0,4.0
438,595.0,596.0,552.0,5.0,12.0,4.0
439,596.0,596.0,553.0,5.0,12.0,4.0
440,596.0,597.0,553.0,5.0,11.0,4.0
441,597.0,597.0,552.0,4.0,11.0,5.0
442,597.0,597.0,553.0,4.0,12.0,4.0
443,597.0,597.0,553.0,4.0,12.0,3.0
444,597.0,597.0,554.0,5.0,11.0,4.0
445,597.0,598.0,553.0,5.0,11.0,4.0
446,598.0,597.0,553.0,5.0,11.0,4.0
447,597.0,597.0,553.0,5.0,11.0,4.0
448,597.0,596.0,553.0,4.0,11.0,4.0
449,596.0,596.0,553.0,5.0,11.0,3.0
450,596.0,595.0,554.0,4.0,11.0,4.0
451,595.0,594.0,554.0,5.0,11.0,4.0
452,594.0,595.0,554.0,5.0,10.0,4.0
453,595.0,595.0,554.0,5.0,11.0,4.0
454,595.0,595.0,555.0,5.0,10.0,4.0
455,595.0,594.0,554.0,4.0,11.0,4.0
456,594.0,594.0,553.0,4.0,11.0,4.0
457,594.0,595.0,554.0,4.0,11.0,4.0
458,595.0,594.0,554.0,4.0,10.0,4.0
459,594.0,594.0,554.0,4.0,10.0,4.0
460,594.0,594.0,554.0,5.0,10.0,4.0
461,594.0,594.0,554.0,4.0,10.0,4.0
462,594.0,594.0,554.0,4.0,11.0,4.0
463,594.0,594.0,554.0,4.0,10.0,4.0
464,594.0,595.0,554.0,4.0,11.0,4.0
465,595.0,596.0,553.0,4.0,10.0,4.0
466,596.0,596.0,553.0,4.0,10.0,4.0
467,596.0,596.0,554.0,4.0,9.0,4.0
468,596.0,596.0,554.0,4.0,10.0,4.0
469,596.0,596.0,553.0,4.0,10.0,4.0
470,596.0,597.0,553.0,4.0,9.0,3.0
471,597.0,597.0,552.0,4.0,9.0,4.0
472,597.0,597.0,553.0,5.0,9.0,4.0
473,597.0,598.0,553.0,4.0,9.0,4.0
474,598.0,598.0,552.0,4.0,9.0,4.0
475,598.0,598.0,553.0,4.0,9.0,4.0
476,598.0,599.0,552.0,4.0,9.0,4.0
477,599.0,599.0,552.0,4.0,9.0,4.0
478,599.0,599.0,552.0,4.0,9.0,4.0
479,599.0,599.0,551.0,4.0,9.0,4.0
480,599.0,599.0,552.0,4.0,9.0,4.0
481,599.0,599.0,551.0,4.0,9.0,4.0
482,599.0,599.0,551.0,4.0,9.0,4.0
483,599.0,598.0,551.0,5.0,9.0,3.0
484,598.0,598.0,551.0,4.0,9.0,4.0
485,598.0,598.0,551.0,3.0,9.0,4.0
486,598.0,598.0,551.0,4.0,9.0,4.0
487,598.0,598.0,551.0,5.0,9.0,4.0
488,598.0,598.0,551.0,4.0,8.0,4.0
489,598.0,598.0,552.0,4.0,9.0,4.0
490,598.0,599.0,552.0,4.0,8.0,5.0
491,599.0,599.0,551.0,4.0,8.0,4.0
492,599.0,599.0,551.0,4.0,9.0,4.0
493,599.0,598.0,551.0,4.0,9.0,4.0
494,598.0,598.0,552.0,4.0,8.0,4.0
495,598.0,598.0,551.0,4.0,8.0,3.0
496,598.0,598.0,551.0,4.0,9.0,4.0
497,598.0,598.0,551.0,4.0,8.0,4.0
498,598.0,598.0,551.0,4.0,8.0,4.0
499,598.0,599.0,551.0,4.0,8.0,4.0
500,599.0,599.0,551.0,5.0,8.0,4.0
501,599.0,599.0,551.0,5.0,8.0,4.0
502,599.0,600.0,551.0,5.0,8.0,4.0
503,600.0,600.0,551.0,5.0,8.0,4.0
504,600.0,600.0,552.0,4.0,8.0,4.0
505,600.0,601.0,552.0,4.0,8.0,4.0
506,601.0,601.0,552.0,4.0,8.0,4.0
507,601.0,601.0,552.0,4.0,8.0,4.0
508,601.0,600.0,552.0,4.0,7.0,5.0
509,600.0,600.0,552.0,5.0,7.0,5.0
510,600.0,600.0,551.0,5.0,8.0,5.0
511,600.0,599.0,551.0,4.0,8.0,4.0
512,599.0,599.0,551.0,4.0,8.0,4.0
513,599.0,599.0,551.0,4.0,7.0,4.0
514,599.0,598.0,552.0,4.0,7.0,5.0
515,598.0,598.0,551.0,5.0,8.0,4.0
516,598.0,598.0,551.0,4.0,7.0,5.0
517,598.0,598.0,551.0,4.0,8.0,4.0
518,598.0,597.0,551.0,4.0,7.0,4.0
519,597.0,597.0,551.0,4.0,7.0,4.0
520,597.0,596.0,551.0,5.0,7.0,4.0
521,596.0,596.0,551.0,5.0,7.0,4.0
522,596.0,596.0,551.0,4.0,7.0,4.0
523,596.0,596.0,551.0,5.0,7.0,4.0
524,596.0,597.0,552.0,4.0,7.0,5.0
525,597.0,598.0,552.0,4.0,7.0,4.0
526,598.0,598.0,552.0,4.0,7.0,4.0
527,598.0,599.0,552.0,4.0,7.0,4.0
528,599.0,599.0,552.0,4.0,6.0,4.0
529,599.0,599.0,552.0,4.0,7.0,4.0
530,599.0,599.0,551.0,4.0,6.0,4.0
531,599.0,598.0,551.0,4.0,7.0,4.0
532,598.0,597.0,550.0,5.0,7.0,4.0
533,597.0,597.0,551.0,4.0,7.0,4.0
534,597.0,596.0,550.0,4.0,6.0,4.0
535,596.0,596.0,550.0,4.0,7.0,4.0
536,596.0,596.0,550.0,4.0,7.0,4.0
537,596.0,596.0,550.0,4.0,7.0,4.0
538,596.0,596.0,550.0,4.0,7.0,4.0
539,596.0,595.0,549.0,5.0,7.0,4.0
540,595.0,595.0,550.0,4.0,6.0,5.0
541,595.0,595.0,551.0,4.0,6.0,4.0
542,595.0,596.0,551.0,4.0,6.0,4.0
543,596.0,596.0,550.0,4.0,6.0,4.0
544,596.0,596.0,551.0,4.0,6.0,4.0
545,596.0,596.0,551.0,4.0,6.0,3.0
546,596.0,596.0,551.0,4.0,6.0,4.0
547,596.0,597.0,551.0,4.0,7.0,4.0
548,597.0,597.0,551.0,4.0,6.0,4.0
549,597.0,597.0,552.0,4.0,6.0,4.0
550,597.0,597.0,551.0,4.0,7.0,4.0
551,597.0,598.0,552.0,4.0,6.0,4.0
552,598.0,598.0,552.0,4.0,6.0,4.0
553,598.0,598.0,552.0,4.0,6.0,5.0
554,598.0,598.0,551.0,4.0,6.0,4.0
555,598.0,598.0,551.0,4.0,7.0,3.0
556,598.0,598.0,551.0,4.0,6.0,4.0
557,598.0,598.0,552.0,4.0,6.0,4.0
558,598.0,598.0,552.0,4.0,6.0,4.0
559,598.0,598.0,552.0,4.0,6.0,4.0
560,598.0,598.0,553.0,4.0,6.0,4.0
561,598.0,598.0,553.0,4.0,6.0,4.0
562,598.0,597.0,553.0,5.0,6.0,4.0
563,597.0,597.0,553.0,5.0,6.0,4.0
564,597.0,597.0,553.0,3.0,6.0,4.0
565,597.0,597.0,553.0,5.0,5.0,4.0
566,597.0,597.0,553.0,4.0,5.0,4.0
567,597.0,597.0,553.0,4.0,6.0,4.0
568,597.0,597.0,553.0,4.0,5.0,3.0
569,597.0,597.0,552.0,4.0,6.0,4.0
570,597.0,597.0,552.0,4.0,6.0,4.0
571,597.0,597.0,552.0,3.0,5.0,4.0
572,597.0,597.0,552.0,5.0,6.0,4.0
573,597.0,597.0,551.0,3.0,5.0,4.0
574,597.0,597.0,552.0,4.0,5.0,4.0
575,597.0,597.0,552.0,4.0,5.0,5.0
576,597.0,597.0,552.0,4.0,6.0,4.0
577,597.0,597.0,552.0,5.0,6.0,4.0
578,597.0,597.0,552.0,4.0,6.0,4.0
579,597.0,598.0,552.0,4.0,5.0,4.0
580,598.0,598.0,552.0,4.0,5.0,4.0
581,598.0,598.0,552.0,5.0,5.0,4.0
582,598.0,598.0,552.0,4.0,6.0,4.0
583,598.0,599.0,552.0,4.0,6.0,4.0
584,599.0,599.0,552.0,4.0,7.0,4.0
585,599.0,599.0,551.0,4.0,6.0,4.0
586,599.0,600.0,552.0,4.0,5.0,4.0
587,600.0,600.0,551.0,4.0,6.0,3.0
588,600.0,599.0,552.0,4.0,5.0,4.0
589,599.0,599.0,551.0,4.0,5.0,4.0
590,599.0,599.0,551.0,4.0,5.0,4.0
591,599.0,600.0,551.0,4.0,6.0,4.0
592,600.0,598.0,551.0,4.0,5.0,4.0
593,598.0,599.0,551.0,4.0,5.0,5.0
594,599.0,598.0,551.0,4.0,5.0,4.0
595,598.0,598.0,551.0,4.0,5.0,4.0
596,598.0,598.0,551.0,5.0,6.0,4.0
597,598.0,598.0,551.0,4.0,6.0,4.0
598,598.0,598.0,551.0,5.0,5.0,4.0
599,598.0,598.0,551.0,4.0,5.0,4.0
600,598.0,598.0,551.0,5.0,5.0,4.0
601,598.0,597.0,551.0,5.0,5.0,4.0
602,597.0,597.0,551.0,5.0,5.0,3.0
603,597.0,597.0,551.0,5.0,5.0,4.0
604,597.0,597.0,552.0,5.0,6.0,4.0
605,597.0,597.0,552.0,5.0,6.0,5.0
606,597.0,596.0,553.0,5.0,5.0,4.0
607,596.0,596.0,553.0,4.0,6.0,4.0
608,596.0,597.0,553.0,5.0,5.0,4.0
609,597.0,597.0,553.0,5.0,6.0,5.0
610,597.0,597.0,553.0,5.0,5.0,5.0
611,597.0,597.0,553.0,5.0,5.0,4.0
612,597.0,597.0,552.0,4.0,6.0,4.0
613,597.0,598.0,553.0,5.0,5.0,4.0
614,598.0,598.0,553.0,5.0,5.0,4.0
615,598.0,598.0,552.0,5.0,5.0,4.0
616,598.0,598.0,552.0,5.0,5.0,4.0
617,598.0,597.0,552.0,5.0,4.0,4.0
618,597.0,597.0,552.0,4.0,5.0,4.0
619,597.0,597.0,553.0,5.0,5.0,4.0
620,597.0,597.0,552.0,5.0,5.0,4.0
621,597.0,597.0,553.0,5.0,5.0,4.0
622,597.0,597.0,552.0,4.0,5.0,4.0
623,597.0,597.0,553.0,4.0,6.0,4.0
624,597.0,597.0,553.0,6.0,5.0,4.0
625,597.0,596.0,553.0,6.0,5.0,4.0
626,596.0,597.0,553.0,4.0,5.0,4.0
627,597.0,597.0,552.0,4.0,4.0,4.0
628,597.0,596.0,553.0,5.0,5.0,3.0
629,596.0,596.0,552.0,5.0,4.0,4.0
630,596.0,596.0,552.0,5.0,5.0,4.0
631,596.0,597.0,553.0,5.0,5.0,4.0
632,597.0,597.0,553.0,5.0,5.0,4.0
633,597.0,596.0,553.0,5.0,5.0,4.0
634,596.0,596.0,553.0,4.0,5.0,4.0
635,596.0,596.0,552.0,4.0,4.0,4.0
636,596.0,596.0,552.0,4.0,4.0,4.0
637,596.0,596.0,552.0,4.0,5.0,4.0
638,596.0,596.0,552.0,4.0,5.0,4.0
639,596.0,596.0,552.0,5.0,5.0,4.0
640,596.0,596.0,552.0,5.0,5.0,4.0
641,596.0,596.0,553.0,4.0,4.0,4.0
642,596.0,596.0,553.0,5.0,5.0,4.0
643,596.0,596.0,553.0,4.0,5.0,4.0
644,596.0,596.0,553.0,5.0,4.0,4.0
645,596.0,595.0,553.0,5.0,5.0,4.0
646,595.0,596.0,552.0,5.0,5.0,4.0
647,596.0,596.0,552.0,4.0,5.0,4.0
648,596.0,595.0,552.0,4.0,4.0,4.0
649,595.0,596.0,551.0,5.0,4.0,4.0
650,596.0,596.0,551.0,4.0,5.0,4.0
651,596.0,596.0,551.0,4.0,4.0,4.0
652,596.0,596.0,551.0,5.0,5.0,4.0
653,596.0,597.0,551.0,4.0,5.0,4.0
654,597.0,596.0,551.0,5.0,5.0,4.0
655,596.0,597.0,550.0,5.0,4.0,4.0
656,597.0,597.0,551.0,4.0,4.0,4.0
657,597.0,597.0,551.0,4.0,5.0,4.0
658,597.0,597.0,550.0,5.0,4.0,4.0
659,597.0,597.0,551.0,5.0,4.0,4.0
660,597.0,598.0,551.0,4.0,5.0,4.0
661,598.0,598.0,551.0,4.0,4.0,4.0
662,598.0,599.0,551.0,4.0,4.0,4.0
663,599.0,599.0,551.0,5.0,5.0,4.0
664,599.0,599.0,551.0,5.0,4.0,4.0
665,599.0,599.0,551.0,4.0,5.0,4.0
666,599.0,599.0,552.0,5.0,4.0,4.0
667,599.0,599.0,552.0,4.0,5.0,4.0
668,599.0,599.0,551.0,4.0,4.0,4.0
669,599.0,598.0,551.0,5.0,4.0,4.0
670,598.0,598.0,552.0,5.0,4.0,4.0
671,598.0,598.0,552.0,4.0,4.0,5.0
672,598.0,598.0,552.0,4.0,6.0,3.0
673,598.0,598.0,552.0,4.0,4.0,4.0
674,598.0,597.0,552.0,4.0,5.0,4.0
675,597.0,597.0,552.0,4.0,5.0,4.0
676,597.0,597.0,552.0,4.0,5.0,4.0
677,597.0,597.0,552.0,4.0,4.0,4.0
678,597.0,597.0,551.0,4.0,4.0,4.0
679,597.0,596.0,551.0,3.0,5.0,4.0
680,596.0,596.0,552.0,4.0,4.0,4.0
681,596.0,596.0,552.0,4.0,4.0,4.0
682,596.0,596.0,552.0,4.0,4.0,4.0
683,596.0,596.0,552.0,5.0,4.0,4.0
684,596.0,596.0,552.0,4.0,4.0,4.0
685,596.0,596.0,552.0,4.0,4.0,4.0
686,596.0,595.0,552.0,4.0,4.0,4.0
687,595.0,595.0,552.0,4.0,4.0,4.0
688,595.0,595.0,552.0,3.0,4.0,4.0
689,595.0,595.0,552.0,3.0,5.0,4.0
690,595.0,595.0,552.0,5.0,5.0,4.0
691,595.0,594.0,552.0,4.0,4.0,4.0
692,594.0,594.0,552.0,4.0,4.0,4.0
693,594.0,594.0,552.0,4.0,4.0,4.0
694,594.0,595.0,552.0,4.0,4.0,4.0
695,595.0,595.0,553.0,4.0,4.0,4.0
696,595.0,595.0,553.0,4.0,5.0,4.0
697,595.0,596.0,553.0,4.0,4.0,4.0
698,596.0,596.0,553.0,4.0,4.0,4.0
699,596.0,597.0,553.0,5.0,4.0,4.0
700,597.0,597.0,554.0,4.0,5.0,3.0
701,597.0,597.0,553.0,5.0,5.0,4.0
702,597.0,597.0,554.0,4.0,4.0,4.0
703,597.0,597.0,553.0,4.0,5.0,4.0
704,597.0,597.0,553.0,5.0,4.0,4.0
705,597.0,597.0,553.0,4.0,4.0,4.0
706,597.0,597.0,553.0,4.0,5.0,4.0
707,597.0,598.0,553.0,4.0,4.0,4.0
708,598.0,598.0,552.0,4.0,4.0,4.0
709,598.0,597.0,552.0,4.0,4.0,4.0
710,597.0,598.0,552.0,5.0,4.0,4.0
711,598.0,598.0,553.0,4.0,3.0,4.0
712,598.0,598.0,552.0,4.0,4.0,4.0
713,598.0,598.0,553.0,4.0,5.0,4.0
714,598.0,598.0,552.0,4.0,4.0,4.0
715,598.0,599.0,553.0,4.0,5.0,3.0
716,599.0,599.0,553.0,4.0,4.0,4.0
717,599.0,599.0,552.0,4.0,4.0,4.0
718,599.0,600.0,552.0,4.0,4.0,4.0
719,600.0,600.0,552.0,4.0,4.0,4.0
720,600.0,600.0,553.0,4.0,4.0,4.0
721,600.0,599.0,552.0,4.0,4.0,4.0
722,599.0,599.0,552.0,4.0,4.0,4.0
723,599.0,599.0,552.0,5.0,4.0,5.0
724,599.0,599.0,552.0,4.0,4.0,4.0
725,599.0,599.0,552.0,4.0,4.0,4.0
726,599.0,599.0,552.0,4.0,4.0,4.0
727,599.0,599.0,552.0,4.0,4.0,4.0
728,599.0,598.0,552.0,4.0,4.0,4.0
729,598.0,598.0,552.0,4.0,4.0,4.0
730,598.0,598.0,552.0,4.0,4.0,5.0
731,598.0,598.0,553.0,4.0,4.0,4.0
732,598.0,598.0,552.0,4.0,4.0,4.0
733,598.0,598.0,552.0,4.0,4.0,4.0
734,598.0,598.0,552.0,4.0,4.0,4.0
735,598.0,597.0,552.0,4.0,4.0,4.0
736,597.0,597.0,552.0,4.0,5.0,4.0
737,597.0,597.0,552.0,4.0,5.0,3.0
738,597.0,598.0,552.0,4.0,4.0,4.0
739,598.0,597.0,552.0,4.0,4.0,4.0
740,597.0,598.0,552.0,4.0,4.0,4.0
741,598.0,598.0,552.0,4.0,4.0,3.0
742,598.0,598.0,552.0,4.0,4.0,4.0
743,598.0,598.0,552.0,4.0,4.0,4.0
744,598.0,598.0,552.0,3.0,4.0,4.0
745,598.0,598.0,552.0,3.0,4.0,4.0
746,598.0,598.0,552.0,4.0,4.0,4.0
747,598.0,598.0,552.0,4.0,4.0,4.0
748,598.0,598.0,552.0,5.0,4.0,4.0
749,598.0,598.0,552.0,4.0,4.0,4.0
750,598.0,598.0,552.0,5.0,4.0,4.0
751,598.0,598.0,552.0,4.0,4.0,3.0
752,598.0,598.0,553.0,3.0,4.0,4.0
753,598.0,598.0,552.0,5.0,4.0,4.0
754,598.0,598.0,552.0,4.0,4.0,3.0
755,598.0,598.0,552.0,4.0,4.0,4.0
756,598.0,597.0,552.0,4.0,4.0,4.0
757,597.0,597.0,552.0,4.0,4.0,4.0
758,597.0,597.0,552.0,3.0,4.0,4.0
759,597.0,597.0,552.0,4.0,4.0,4.0
760,597.0,597.0,552.0,4.0,4.0,4.0
761,597.0,597.0,553.0,4.0,4.0,4.0
762,597.0,597.0,553.0,4.0,4.0,5.0
763,597.0,597.0,553.0,4.0,3.0,4.0
764,597.0,598.0,552.0,4.0,4.0,4.0
765,598.0,598.0,552.0,5.0,4.0,4.0
766,598.0,598.0,552.0,3.0,4.0,4.0
767,598.0,597.0,552.0,3.0,4.0,5.0
768,597.0,597.0,552.0,4.0,4.0,4.0
769,597.0,598.0,552.0,4.0,4.0,4.0
770,598.0,597.0,552.0,4.0,5.0,4.0
771,597.0,597.0,552.0,4.0,4.0,4.0
772,597.0,597.0,552.0,4.0,4.0,4.0
773,597.0,597.0,552.0,4.0,4.0,4.0
774,597.0,597.0,552.0,4.0,4.0,4.0
775,597.0,597.0,552.0,4.0,4.0,4.0
776,597.0,598.0,552.0,5.0,4.0,4.0
777,598.0,597.0,552.0,4.0,4.0,4.0
778,597.0,597.0,552.0,4.0,4.0,4.0
779,597.0,598.0,552.0,4.0,4.0,4.0
780,598.0,597.0,552.0,4.0,4.0,4.0
781,597.0,597.0,552.0,4.0,4.0,3.0
782,597.0,598.0,552.0,4.0,4.0,4.0
783,598.0,597.0,553.0,4.0,4.0,4.0
784,597.0,598.0,553.0,4.0,5.0,5.0
785,598.0,598.0,553.0,4.0,4.0,3.0
786,598.0,598.0,552.0,4.0,4.0,5.0
787,598.0,598.0,552.0,4.0,4.0,4.0
788,598.0,598.0,552.0,4.0,4.0,4.0
789,598.0,598.0,552.0,4.0,4.0,4.0
790,598.0,598.0,553.0,4.0,4.0,4.0
791,598.0,598.0,553.0,4.0,4.0,4.0
792,598.0,598.0,553.0,4.0,4.0,4.0
793,598.0,598.0,553.0,5.0,4.0,4.0
794,598.0,598.0,553.0,3.0,4.0,4.0
795,598.0,598.0,553.0,4.0,4.0,4.0
796,598.0,598.0,553.0,5.0,4.0,5.0
797,598.0,598.0,553.0,4.0,4.0,4.0
798,598.0,598.0,553.0,4.0,4.0,4.0
799,598.0,598.0,553.0,4.0,4.0,5.0
800,598.0,598.0,553.0,4.0,4.0,4.0
801,598.0,598.0,553.0,4.0,4.0,4.0
802,598.0,598.0,552.0,4.0,3.0,4.0
803,598.0,598.0,552.0,4.0,4.0,4.0
804,598.0,597.0,552.0,4.0,3.0,4.0
805,597.0,598.0,552.0,4.0,4.0,4.0
806,598.0,598.0,552.0,4.0,5.0,4.0
807,598.0,598.0,553.0,3.0,4.0,4.0
808,598.0,598.0,553.0,4.0,4.0,4.0
809,598.0,598.0,553.0,4.0,4.0,4.0
810,598.0,598.0,552.0,3.0,4.0,4.0
811,598.0,597.0,552.0,4.0,3.0,3.0
812,597.0,597.0,553.0,4.0,4.0,3.0
813,597.0,597.0,552.0,4.0,4.0,4.0
814,597.0,597.0,552.0,3.0,4.0,4.0
815,597.0,597.0,552.0,4.0,4.0,3.0
816,597.0,597.0,551.0,4.0,4.0,4.0
817,597.0,597.0,551.0,4.0,3.0,4.0
818,597.0,597.0,551.0,4.0,4.0,4.0
819,597.0,596.0,552.0,4.0,4.0,3.0
820,596.0,597.0,552.0,4.0,5.0,4.0
821,597.0,597.0,553.0,4.0,4.0,4.0
822,597.0,598.0,553.0,4.0,4.0,5.0
823,598.0,597.0,553.0,4.0,4.0,4.0
824,597.0,598.0,553.0,5.0,4.0,4.0
825,598.0,598.0,553.0,4.0,4.0,4.0
826,598.0,598.0,553.0,4.0,4.0,3.0
827,598.0,598.0,554.0,4.0,4.0,3.0
828,598.0,598.0,554.0,4.0,4.0,4.0
829,598.0,598.0,553.0,4.0,4.0,4.0
830,598.0,599.0,554.0,4.0,4.0,4.0
831,599.0,598.0,554.0,4.0,4.0,4.0
832,598.0,598.0,553.0,4.0,4.0,4.0
833,598.0,598.0,553.0,4.0,4.0,4.0
834,598.0,599.0,553.0,4.0,4.0,4.0
835,599.0,598.0,554.0,4.0,4.0,4.0
836,598.0,598.0,553.0,4.0,4.0,4.0
837,598.0,598.0,553.0,4.0,4.0,4.0
838,598.0,598.0,553.0,4.0,4.0,5.0
839,598.0,598.0,553.0,4.0,4.0,4.0
840,598.0,598.0,554.0,4.0,4.0,4.0
841,598.0,597.0,553.0,5.0,4.0,4.0
842,597.0,598.0,554.0,4.0,4.0,4.0
843,598.0,598.0,553.0,4.0,4.0,4.0
844,598.0,597.0,553.0,4.0,4.0,4.0
845,597.0,597.0,553.0,4.0,4.0,4.0
846,597.0,597.0,553.0,4.0,4.0,4.0
847,597.0,596.0,553.0,4.0,4.0,4.0
848,596.0,597.0,553.0,4.0,4.0,4.0
849,597.0,597.0,553.0,4.0,4.0,4.0
850,597.0,596.0,553.0,4.0,4.0,4.0
851,596.0,597.0,553.0,4.0,4.0,4.0
852,597.0,597.0,553.0,4.0,4.0,4.0
853,597.0,597.0,553.0,4.0,4.0,4.0
854,597.0,597.0,553.0,4.0,4.0,4.0
855,597.0,596.0,553.0,4.0,4.0,4.0
856,596.0,597.0,553.0,4.0,5.0,5.0
857,597.0,597.0,553.0,4.0,4.0,4.0
858,597.0,597.0,553.0,4.0,4.0,4.0
859,597.0,597.0,553.0,4.0,4.0,4.0
860,597.0,597.0,553.0,4.0,4.0,4.0
861,597.0,597.0,553.0,4.0,4.0,4.0
862,597.0,597.0,553.0,4.0,4.0,4.0
863,597.0,597.0,553.0,4.0,5.0,4.0
864,597.0,597.0,553.0,4.0,3.0,4.0
865,597.0,597.0,553.0,4.0,4.0,4.0
866,597.0,597.0,553.0,4.0,4.0,4.0
867,597.0,597.0,553.0,4.0,4.0,4.0
868,597.0,597.0,554.0,4.0,4.0,3.0
869,597.0,597.0,554.0,4.0,4.0,4.0
870,597.0,596.0,553.0,4.0,4.0,4.0
871,596.0,596.0,553.0,3.0,4.0,3.0
872,596.0,596.0,553.0,4.0,4.0,4.0
873,596.0,597.0,553.0,4.0,4.0,4.0
874,597.0,597.0,553.0,5.0,4.0,4.0
875,597.0,597.0,553.0,4.0,4.0,4.0
876,597.0,597.0,553.0,4.0,4.0,4.0
877,597.0,597.0,553.0,3.0,4.0,4.0
878,597.0,597.0,553.0,4.0,4.0,4.0
879,597.0,597.0,552.0,4.0,4.0,4.0
880,597.0,597.0,553.0,4.0,4.0,4.0
881,597.0,597.0,552.0,4.0,4.0,3.0
882,597.0,597.0,553.0,4.0,5.0,4.0
883,597.0,596.0,553.0,4.0,4.0,4.0
884,596.0,596.0,553.0,4.0,4.0,5.0
885,596.0,596.0,553.0,4.0,4.0,4.0
886,596.0,596.0,553.0,3.0,3.0,3.0
887,596.0,596.0,552.0,4.0,3.0,4.0
888,596.0,596.0,553.0,4.0,4.0,4.0
889,596.0,595.0,552.0,4.0,4.0,4.0
890,595.0,596.0,552.0,4.0,4.0,4.0
891,596.0,596.0,552.0,4.0,4.0,4.0
892,596.0,595.0,552.0,4.0,4.0,4.0
893,595.0,596.0,552.0,3.0,4.0,4.0
894,596.0,596.0,552.0,4.0,3.0,4.0
895,596.0,596.0,553.0,4.0,4.0,4.0
896,596.0,596.0,552.0,4.0,4.0,4.0
897,596.0,595.0,551.0,3.0,4.0,3.0
898,595.0,595.0,552.0,4.0,4.0,4.0
899,595.0,596.0,552.0,4.0,4.0,4.0
900,596.0,597.0,552.0,3.0,3.0,5.0
901,597.0,597.0,552.0,4.0,4.0,4.0
902,597.0,597.0,552.0,4.0,4.0,4.0
903,597.0,597.0,552.0,4.0,3.0,4.0
904,597.0,598.0,553.0,4.0,4.0,4.0
905,598.0,598.0,553.0,4.0,4.0,4.0
906,598.0,598.0,554.0,3.0,4.0,4.0
907,598.0,599.0,554.0,4.0,4.0,4.0
908,599.0,599.0,554.0,5.0,4.0,4.0
909,599.0,599.0,554.0,4.0,4.0,3.0
910,599.0,600.0,554.0,4.0,3.0,3.0
911,600.0,599.0,554.0,4.0,4.0,4.0
912,599.0,600.0,554.0,4.0,4.0,4.0
913,600.0,600.0,554.0,4.0,4.0,5.0
914,600.0,600.0,554.0,4.0,4.0,4.0
915,600.0,599.0,555.0,4.0,4.0,4.0
916,599.0,599.0,555.0,4.0,4.0,4.0
917,599.0,599.0,554.0,4.0,4.0,4.0
918,599.0,599.0,555.0,4.0,4.0,4.0
919,599.0,598.0,554.0,4.0,4.0,4.0
920,598.0,598.0,555.0,4.0,4.0,3.0
921,598.0,598.0,555.0,4.0,4.0,4.0
922,598.0,597.0,554.0,4.0,4.0,4.0
923,597.0,596.0,554.0,4.0,4.0,5.0
924,596.0,596.0,554.0,4.0,3.0,4.0
925,596.0,596.0,553.0,4.0,4.0,4.0
926,596.0,596.0,553.0,4.0,4.0,4.0
927,596.0,596.0,553.0,4.0,4.0,4.0
928,596.0,595.0,554.0,4.0,4.0,4.0
929,595.0,595.0,553.0,4.0,4.0,4.0
930,595.0,595.0,554.0,3.0,4.0,5.0
931,595.0,595.0,554.0,4.0,4.0,5.0
932,595.0,595.0,554.0,4.0,4.0,4.0
933,595.0,595.0,554.0,4.0,3.0,4.0
934,595.0,595.0,554.0,4.0,5.0,4.0
935,595.0,595.0,554.0,3.0,4.0,4.0
936,595.0,595.0,554.0,4.0,3.0,4.0
937,595.0,595.0,554.0,4.0,4.0,4.0
938,595.0,595.0,554.0,5.0,4.0,4.0
939,595.0,596.0,554.0,4.0,4.0,4.0
940,596.0,596.0,555.0,4.0,4.0,4.0
941,596.0,596.0,555.0,4.0,4.0,4.0
942,596.0,596.0,555.0,4.0,3.0,4.0
943,596.0,596.0,555.0,4.0,3.0,4.0
944,596.0,597.0,554.0,4.0,4.0,4.0
945,597.0,597.0,554.0,4.0,4.0,3.0
946,597.0,597.0,554.0,3.0,4.0,4.0
947,597.0,597.0,554.0,4.0,3.0,4.0
948,597.0,597.0,554.0,4.0,4.0,4.0
949,597.0,597.0,554.0,4.0,4.0,4.0
950,597.0,597.0,554.0,4.0,4.0,4.0
951,597.0,598.0,554.0,3.0,4.0,4.0
952,598.0,598.0,554.0,4.0,4.0,4.0
953,598.0,598.0,554.0,4.0,4.0,4.0
954,598.0,598.0,554.0,4.0,4.0,4.0
955,598.0,598.0,554.0,4.0,4.0,4.0
956,598.0,598.0,554.0,4.0,4.0,4.0
957,598.0,599.0,553.0,3.0,4.0,4.0
958,599.0,598.0,553.0,4.0,4.0,4.0
959,598.0,598.0,554.0,4.0,4.0,4.0
960,598.0,598.0,554.0,3.0,4.0,4.0
961,598.0,598.0,554.0,3.0,4.0,4.0
962,598.0,598.0,554.0,4.0,4.0,4.0
963,598.0,598.0,554.0,4.0,4.0,4.0
964,598.0,598.0,554.0,3.0,4.0,4.0
965,598.0,598.0,554.0,4.0,4.0,3.0
966,598.0,598.0,553.0,3.0,4.0,4.0
967,598.0,597.0,553.0,3.0,4.0,4.0
968,597.0,597.0,553.0,4.0,4.0,3.0
969,597.0,597.0,554.0,4.0,4.0,4.0
970,597.0,596.0,553.0,4.0,4.0,4.0
971,596.0,596.0,553.0,3.0,4.0,4.0
972,596.0,596.0,553.0,4.0,4.0,4.0
973,596.0,596.0,553.0,3.0,4.0,4.0
974,596.0,596.0,553.0,4.0,4.0,4.0
975,596.0,596.0,553.0,4.0,3.0,4.0
976,596.0,596.0,554.0,4.0,4.0,4.0
977,596.0,596.0,554.0,4.0,4.0,4.0
978,596.0,596.0,554.0,4.0,3.0,4.0
979,596.0,596.0,554.0,4.0,4.0,4.0
980,596.0,596.0,554.0,4.0,4.0,4.0
981,596.0,597.0,553.0,4.0,4.0,3.0
982,597.0,596.0,553.0,4.0,3.0,4.0
983,596.0,596.0,553.0,4.0,3.0,5.0
984,596.0,596.0,553.0,4.0,4.0,4.0
985,596.0,595.0,553.0,5.0,4.0,4.0
986,595.0,596.0,553.0,4.0,4.0,4.0
987,596.0,596.0,552.0,4.0,4.0,4.0
988,596.0,596.0,553.0,4.0,4.0,4.0
989,596.0,597.0,553.0,4.0,4.0,4.0
990,597.0,597.0,553.0,4.0,4.0,4.0
991,597.0,597.0,553.0,3.0,4.0,5.0
992,597.0,597.0,553.0,4.0,3.0,4.0
993,597.0,598.0,553.0,4.0,3.0,4.0
994,598.0,598.0,553.0,4.0,4.0,4.0
995,598.0,598.0,554.0,4.0,4.0,4.0
996,598.0,598.0,553.0,3.0,4.0,4.0
997,598.0,598.0,554.0,4.0,4.0,4.0
998,598.0,597.0,553.0,4.0,3.0,4.0
999,597.0,598.0,553.0,4.0,4.0,4.0
1000,598.0,598.0,554.0,4.0,4.0,4.0
1001,598.0,597.0,554.0,4.0,4.0,4.0
1002,597.0,597.0,554.0,4.0,4.0,4.0
1003,597.0,597.0,554.0,3.0,3.0,4.0
1004,597.0,597.0,554.0,3.0,3.0,4.0
1005,597.0,596.0,554.0,3.0,4.0,4.0
1006,596.0,597.0,554.0,4.0,3.0,4.0
1007,597.0,597.0,554.0,4.0,4.0,4.0
1008,597.0,596.0,554.0,4.0,3.0,4.0
1009,596.0,597.0,553.0,4.0,4.0,4.0
1010,597.0,596.0,553.0,4.0,4.0,4.0
1011,596.0,596.0,554.0,3.0,4.0,4.0
1012,596.0,596.0,553.0,4.0,4.0,4.0
1013,596.0,596.0,554.0,4.0,4.0,4.0
1014,596.0,596.0,554.0,3.0,4.0,5.0
1015,596.0,596.0,554.0,4.0,4.0,4.0
1016,596.0,596.0,554.0,4.0,4.0,4.0
1017,596.0,595.0,554.0,4.0,4.0,4.0
1018,595.0,596.0,554.0,4.0,3.0,4.0
1019,596.0,596.0,554.0,4.0,3.0,4.0
1020,596.0,595.0,554.0,4.0,4.0,4.0
1021,595.0,595.0,553.0,3.0,4.0,4.0
1022,595.0,596.0,553.0,4.0,3.0,4.0
1023,596.0,596.0,553.0,4.0,4.0,4.0
1024,596.0,596.0,554.0,4.0,4.0,4.0
1025,596.0,596.0,554.0,4.0,4.0,4.0
1026,596.0,597.0,553.0,4.0,4.0,4.0
1027,597.0,597.0,554.0,4.0,3.0,3.0
1028,597.0,597.0,554.0,3.0,4.0,4.0
1029,597.0,597.0,554.0,4.0,4.0,4.0
1030,597.0,597.0,553.0,4.0,4.0,4.0
1031,597.0,597.0,554.0,3.0,4.0,4.0
1032,597.0,597.0,553.0,4.0,4.0,4.0
1033,597.0,597.0,554.0,3.0,4.0,4.0
1034,597.0,598.0,554.0,4.0,4.0,3.0
1035,598.0,598.0,554.0,4.0,4.0,4.0
1036,598.0,599.0,553.0,4.0,4.0,4.0
1037,599.0,598.0,553.0,4.0,4.0,4.0
1038,598.0,598.0,552.0,4.0,4.0,4.0
1039,598.0,598.0,553.0,3.0,3.0,4.0
1040,598.0,597.0,553.0,3.0,4.0,4.0
1041,597.0,597.0,553.0,4.0,3.0,4.0
1042,597.0,597.0,553.0,4.0,4.0,4.0
1043,597.0,597.0,553.0,3.0,4.0,4.0
1044,597.0,596.0,552.0,4.0,4.0,4.0
1045,596.0,596.0,553.0,4.0,4.0,5.0
1046,596.0,596.0,552.0,4.0,4.0,4.0
1047,596.0,597.0,553.0,3.0,3.0,4.0
1048,597.0,597.0,552.0,4.0,4.0,4.0
1049,597.0,597.0,553.0,4.0,4.0,4.0
1050,597.0,596.0,552.0,4.0,3.0,4.0
1051,596.0,596.0,552.0,4.0,4.0,4.0
1052,596.0,596.0,553.0,4.0,4.0,4.0
1053,596.0,597.0,553.0,4.0,4.0,4.0
1054,597.0,597.0,553.0,4.0,3.0,4.0
1055,597.0,597.0,552.0,4.0,4.0,4.0
1056,597.0,597.0,553.0,3.0,3.0,4.0
1057,597.0,597.0,553.0,3.0,4.0,4.0
1058,597.0,596.0,553.0,4.0,4.0,4.0
1059,596.0,596.0,552.0,4.0,4.0,3.0
1060,596.0,596.0,553.0,4.0,3.0,4.0
1061,596.0,597.0,553.0,4.0,4.0,4.0
1062,597.0,597.0,554.0,4.0,3.0,4.0
1063,597.0,597.0,554.0,4.0,4.0,4.0
1064,597.0,597.0,553.0,4.0,4.0,4.0
1065,597.0,597.0,554.0,4.0,4.0,3.0
1066,597.0,597.0,554.0,4.0,4.0,4.0
1067,597.0,597.0,554.0,4.0,4.0,3.0
1068,597.0,598.0,554.0,4.0,4.0,4.0
1069,598.0,598.0,554.0,4.0,4.0,4.0
1070,598.0,598.0,554.0,4.0,4.0,4.0
1071,598.0,598.0,555.0,3.0,4.0,4.0
1072,598.0,598.0,554.0,4.0,3.0,4.0
1073,598.0,598.0,554.0,4.0,4.0,4.0
1074,598.0,597.0,554.0,4.0,4.0,4.0
1075,597.0,597.0,553.0,4.0,3.0,4.0
1076,597.0,597.0,553.0,4.0,4.0,4.0
1077,597.0,597.0,553.0,3.0,4.0,4.0
1078,597.0,596.0,553.0,4.0,4.0,4.0
1079,596.0,597.0,553.0,3.0,3.0,4.0
1080,597.0,597.0,553.0,4.0,4.0,4.0
1081,597.0,596.0,553.0,4.0,4.0,4.0
1082,596.0,597.0,554.0,3.0,4.0,4.0
1083,597.0,597.0,553.0,4.0,4.0,4.0
1084,597.0,597.0,554.0,4.0,3.0,4.0
1085,597.0,598.0,554.0,4.0,4.0,4.0
1086,598.0,598.0,554.0,3.0,3.0,4.0
1087,598.0,598.0,554.0,4.0,4.0,4.0
1088,598.0,598.0,554.0,4.0,4.0,4.0
1089,598.0,598.0,554.0,4.0,4.0,4.0
1090,598.0,598.0,554.0,4.0,3.0,4.0
1091,598.0,597.0,554.0,4.0,4.0,4.0
1092,597.0,597.0,553.0,4.0,1.0,4.0
1093,597.0,597.0,554.0,4.0,4.0,4.0
1094,597.0,597.0,554.0,4.0,3.0,3.0
1095,597.0,596.0,553.0,4.0,4.0,4.0
1096,596.0,596.0,553.0,4.0,4.0,4.0
1097,596.0,596.0,553.0,3.0,4.0,4.0
1098,596.0,595.0,553.0,3.0,4.0,4.0
1099,595.0,596.0,553.0,4.0,4.0,4.0
1100,596.0,596.0,553.0,4.0,4.0,4.0
1101,596.0,596.0,553.0,3.0,4.0,3.0
1102,596.0,596.0,553.0,3.0,3.0,3.0
1103,596.0,596.0,553.0,4.0,4.0,4.0
1104,596.0,596.0,554.0,4.0,4.0,4.0
1105,596.0,596.0,554.0,4.0,4.0,4.0
1106,596.0,597.0,554.0,4.0,4.0,4.0
1107,597.0,597.0,553.0,4.0,4.0,4.0
1108,597.0,597.0,554.0,4.0,4.0,4.0
1109,597.0,596.0,553.0,4.0,4.0,4.0
1110,596.0,596.0,553.0,4.0,3.0,4.0
1111,596.0,596.0,553.0,4.0,4.0,4.0
1112,596.0,596.0,552.0,4.0,4.0,4.0
1113,596.0,596.0,552.0,4.0,4.0,4.0
1114,596.0,596.0,553.0,4.0,4.0,4.0
1115,596.0,596.0,552.0,4.0,4.0,5.0
1116,596.0,597.0,553.0,4.0,4.0,4.0
1117,597.0,597.0,553.0,4.0,4.0,4.0
1118,597.0,597.0,553.0,4.0,3.0,4.0
1119,597.0,597.0,553.0,4.0,4.0,4.0
1120,597.0,596.0,554.0,4.0,3.0,5.0
1121,596.0,597.0,554.0,4.0,4.0,4.0
1122,597.0,597.0,554.0,3.0,4.0,4.0
1123,597.0,597.0,554.0,5.0,4.0,4.0
1124,597.0,597.0,554.0,4.0,4.0,4.0
1125,597.0,596.0,554.0,4.0,4.0,4.0
1126,596.0,597.0,554.0,4.0,4.0,4.0
1127,597.0,596.0,555.0,4.0,4.0,5.0
1128,596.0,597.0,554.0,4.0,4.0,4.0
1129,597.0,597.0,554.0,4.0,4.0,4.0
1130,597.0,597.0,554.0,5.0,4.0,4.0
1131,597.0,597.0,553.0,4.0,4.0,4.0
1132,597.0,596.0,554.0,4.0,4.0,4.0
1133,596.0,596.0,554.0,4.0,4.0,5.0
1134,596.0,596.0,554.0,4.0,4.0,4.0
1135,596.0,596.0,555.0,4.0,4.0,4.0
1136,596.0,596.0,555.0,4.0,3.0,3.0
1137,596.0,596.0,555.0,4.0,4.0,4.0
1138,596.0,596.0,555.0,5.0,4.0,4.0
1139,596.0,596.0,555.0,4.0,4.0,4.0
1140,596.0,596.0,556.0,4.0,4.0,4.0
1141,596.0,596.0,555.0,3.0,3.0,3.0
1142,596.0,596.0,555.0,4.0,4.0,4.0
1143,596.0,595.0,555.0,4.0,3.0,4.0
1144,595.0,595.0,556.0,4.0,5.0,4.0
1145,595.0,595.0,555.0,4.0,4.0,4.0
1146,595.0,595.0,555.0,4.0,3.0,4.0
1147,595.0,595.0,555.0,4.0,4.0,4.0
1148,595.0,595.0,554.0,5.0,4.0,5.0
1149,595.0,595.0,554.0,4.0,4.0,5.0
1150,595.0,595.0,554.0,3.0,4.0,4.0
1151,595.0,595.0,553.0,4.0,4.0,4.0
1152,595.0,596.0,554.0,4.0,4.0,4.0
1153,596.0,595.0,554.0,4.0,4.0,4.0
1154,595.0,596.0,554.0,4.0,3.0,4.0
1155,596.0,595.0,554.0,4.0,4.0,4.0
1156,595.0,596.0,553.0,4.0,4.0,4.0
1157,596.0,596.0,554.0,4.0,4.0,4.0
1158,596.0,596.0,554.0,4.0,5.0,3.0
1159,596.0,597.0,554.0,4.0,4.0,4.0
1160,597.0,597.0,553.0,4.0,3.0,4.0
1161,597.0,597.0,553.0,4.0,3.0,4.0
1162,597.0,597.0,553.0,4.0,3.0,4.0
1163,597.0,598.0,553.0,4.0,4.0,4.0
1164,598.0,598.0,553.0,3.0,4.0,4.0
1165,598.0,598.0,553.0,4.0,4.0,4.0
1166,598.0,598.0,553.0,4.0,4.0,4.0
1167,598.0,598.0,553.0,4.0,4.0,3.0
1168,598.0,598.0,553.0,4.0,4.0,4.0
1169,598.0,598.0,552.0,4.0,3.0,3.0
1170,598.0,598.0,553.0,4.0,4.0,4.0
1171,598.0,598.0,553.0,4.0,4.0,4.0
1172,598.0,598.0,553.0,3.0,3.0,4.0
1173,598.0,598.0,553.0,4.0,4.0,4.0
1174,598.0,599.0,553.0,4.0,4.0,4.0
1175,599.0,599.0,553.0,4.0,4.0,4.0
1176,599.0,599.0,554.0,4.0,4.0,4.0
1177,599.0,599.0,553.0,4.0,4.0,4.0
1178,599.0,599.0,553.0,4.0,4.0,4.0
1179,599.0,599.0,553.0,4.0,3.0,4.0
1180,599.0,598.0,553.0,4.0,4.0,3.0
1181,598.0,598.0,553.0,4.0,4.0,4.0
1182,598.0,598.0,553.0,4.0,4.0,3.0
1183,598.0,598.0,553.0,4.0,4.0,4.0
1184,598.0,597.0,554.0,4.0,5.0,3.0
1185,597.0,597.0,554.0,4.0,4.0,4.0
1186,597.0,597.0,554.0,4.0,4.0,4.0
1187,597.0,597.0,554.0,4.0,3.0,3.0
1188,597.0,597.0,554.0,4.0,5.0,4.0
1189,597.0,597.0,554.0,4.0,4.0,4.0
1190,597.0,597.0,554.0,5.0,4.0,4.0
1191,597.0,597.0,555.0,4.0,4.0,4.0
1192,597.0,597.0,555.0,5.0,4.0,4.0
1193,597.0,597.0,554.0,3.0,4.0,3.0
1194,597.0,597.0,554.0,4.0,4.0,4.0
1195,597.0,597.0,555.0,4.0,4.0,4.0
1196,597.0,597.0,555.0,4.0,4.0,4.0
1197,597.0,597.0,554.0,4.0,4.0,4.0
1198,597.0,597.0,555.0,4.0,4.0,4.0
1199,597.0,597.0,554.0,4.0,4.0,4.0
1200,597.0,597.0,554.0,4.0,4.0,4.0
1201,597.0,596.0,554.0,4.0,4.0,4.0
1202,596.0,596.0,554.0,4.0,4.0,4.0
1203,596.0,597.0,554.0,4.0,3.0,4.0
1204,597.0,596.0,554.0,4.0,4.0,4.0
1205,596.0,596.0,554.0,4.0,4.0,4.0
1206,596.0,596.0,554.0,3.0,4.0,4.0
1207,596.0,596.0,553.0,3.0,4.0,4.0
1208,596.0,596.0,554.0,4.0,3.0,4.0
1209,596.0,596.0,553.0,4.0,4.0,4.0
1210,596.0,596.0,553.0,4.0,3.0,4.0
1211,596.0,596.0,553.0,5.0,3.0,3.0
1212,596.0,596.0,553.0,4.0,4.0,4.0
1213,596.0,596.0,554.0,4.0,4.0,4.0
1214,596.0,596.0,553.0,4.0,4.0,4.0
1215,596.0,597.0,553.0,4.0,3.0,4.0
1216,597.0,597.0,553.0,4.0,4.0,4.0
1217,597.0,597.0,553.0,4.0,4.0,4.0
1218,597.0,597.0,553.0,4.0,4.0,4.0
1219,597.0,597.0,553.0,4.0,4.0,4.0
1220,597.0,597.0,553.0,3.0,4.0,4.0
1221,597.0,597.0,553.0,4.0,4.0,4.0
1222,597.0,597.0,553.0,4.0,3.0,4.0
1223,597.0,597.0,553.0,4.0,4.0,4.0
1224,597.0,598.0,553.0,3.0,4.0,4.0
1225,598.0,598.0,553.0,4.0,3.0,4.0
1226,598.0,598.0,553.0,4.0,4.0,4.0
1227,598.0,598.0,553.0,4.0,4.0,4.0
1228,598.0,599.0,554.0,4.0,4.0,4.0
1229,599.0,599.0,553.0,4.0,4.0,3.0
1230,599.0,599.0,554.0,4.0,4.0,5.0
1231,599.0,599.0,553.0,5.0,4.0,4.0
1232,599.0,598.0,554.0,3.0,4.0,4.0
1233,598.0,598.0,553.0,4.0,4.0,4.0
1234,598.0,598.0,553.0,5.0,4.0,3.0
1235,598.0,598.0,553.0,4.0,4.0,4.0
1236,598.0,597.0,553.0,4.0,3.0,4.0
1237,597.0,597.0,553.0,4.0,4.0,5.0
1238,597.0,597.0,554.0,4.0,4.0,4.0
1239,597.0,598.0,553.0,4.0,4.0,4.0
1240,598.0,597.0,554.0,4.0,4.0,4.0
1241,597.0,597.0,553.0,4.0,4.0,3.0
1242,597.0,596.0,553.0,5.0,4.0,4.0
1243,596.0,597.0,553.0,4.0,4.0,4.0
1244,597.0,596.0,553.0,4.0,4.0,4.0
1245,596.0,597.0,553.0,4.0,4.0,4.0
1246,597.0,597.0,553.0,4.0,4.0,4.0
1247,597.0,597.0,553.0,3.0,4.0,4.0
1248,597.0,597.0,553.0,4.0,4.0,4.0
1249,597.0,597.0,553.0,4.0,5.0,4.0
1250,597.0,596.0,553.0,4.0,5.0,4.0
1251,596.0,596.0,553.0,4.0,4.0,4.0
1252,596.0,596.0,553.0,4.0,5.0,4.0
1253,596.0,596.0,552.0,4.0,4.0,4.0
1254,596.0,596.0,552.0,4.0,3.0,4.0
1255,596.0,596.0,552.0,4.0,4.0,4.0
1256,596.0,596.0,553.0,4.0,4.0,4.0
1257,596.0,597.0,553.0,4.0,4.0,4.0
1258,597.0,597.0,553.0,3.0,4.0,4.0
1259,597.0,598.0,553.0,4.0,4.0,4.0
1260,598.0,598.0,553.0,4.0,4.0,4.0
1261,598.0,599.0,553.0,4.0,4.0,4.0
1262,599.0,600.0,553.0,4.0,4.0,4.0
1263,600.0,600.0,553.0,4.0,4.0,4.0
1264,600.0,600.0,553.0,4.0,3.0,4.0
1265,600.0,600.0,553.0,4.0,4.0,4.0
1266,600.0,601.0,553.0,4.0,4.0,4.0
1267,601.0,600.0,553.0,5.0,4.0,4.0
1268,600.0,600.0,553.0,4.0,4.0,4.0
1269,600.0,600.0,554.0,4.0,4.0,4.0
1270,600.0,600.0,554.0,4.0,4.0,4.0
1271,600.0,600.0,554.0,4.0,4.0,4.0
1272,600.0,600.0,554.0,4.0,4.0,4.0
1273,600.0,600.0,554.0,3.0,4.0,4.0
1274,600.0,600.0,554.0,4.0,4.0,4.0
1275,600.0,600.0,554.0,4.0,4.0,4.0
1276,600.0,600.0,554.0,4.0,4.0,4.0
1277,600.0,599.0,554.0,4.0,4.0,4.0
1278,599.0,599.0,554.0,3.0,4.0,4.0
1279,599.0,598.0,554.0,4.0,4.0,4.0
1280,598.0,598.0,554.0,3.0,4.0,5.0
1281,598.0,598.0,554.0,4.0,3.0,4.0
1282,598.0,598.0,554.0,4.0,4.0,4.0
1283,598.0,598.0,554.0,4.0,3.0,4.0
1284,598.0,597.0,554.0,4.0,4.0,4.0
1285,597.0,596.0,554.0,4.0,4.0,4.0
1286,596.0,596.0,554.0,4.0,4.0,4.0
1287,596.0,595.0,554.0,4.0,4.0,4.0
1288,595.0,594.0,554.0,4.0,3.0,4.0
1289,594.0,594.0,554.0,4.0,4.0,4.0
1290,594.0,595.0,554.0,4.0,4.0,4.0
1291,595.0,594.0,554.0,4.0,4.0,4.0
1292,594.0,595.0,554.0,4.0,4.0,4.0
1293,595.0,595.0,555.0,3.0,4.0,3.0
1294,595.0,595.0,554.0,4.0,4.0,4.0
1295,595.0,595.0,554.0,4.0,4.0,4.0
1296,595.0,595.0,554.0,4.0,4.0,4.0
1297,595.0,595.0,554.0,4.0,4.0,4.0
1298,595.0,595.0,554.0,4.0,4.0,4.0
1299,595.0,594.0,554.0,4.0,3.0,4.0
1300,594.0,594.0,554.0,4.0,4.0,4.0
1301,594.0,594.0,554.0,4.0,4.0,4.0
1302,594.0,593.0,553.0,4.0,4.0,4.0
1303,593.0,594.0,554.0,4.0,4.0,4.0
1304,594.0,594.0,553.0,4.0,4.0,4.0
1305,594.0,595.0,553.0,4.0,4.0,4.0
1306,595.0,595.0,554.0,5.0,4.0,4.0
1307,595.0,595.0,554.0,4.0,4.0,4.0
1308,595.0,596.0,554.0,4.0,4.0,4.0
1309,596.0,596.0,554.0,4.0,4.0,4.0
1310,596.0,596.0,554.0,4.0,4.0,4.0
1311,596.0,597.0,553.0,4.0,4.0,4.0
1312,597.0,597.0,553.0,4.0,4.0,4.0
1313,597.0,596.0,554.0,4.0,4.0,4.0
1314,596.0,596.0,554.0,5.0,3.0,4.0
1315,596.0,596.0,554.0,4.0,4.0,4.0
1316,596.0,597.0,554.0,4.0,4.0,4.0
1317,597.0,597.0,554.0,3.0,3.0,4.0
1318,597.0,597.0,554.0,4.0,4.0,4.0
1319,597.0,598.0,553.0,4.0,4.0,5.0
1320,598.0,598.0,554.0,4.0,3.0,4.0
1321,598.0,598.0,553.0,3.0,4.0,4.0
1322,598.0,598.0,553.0,3.0,4.0,4.0
1323,598.0,598.0,553.0,4.0,4.0,4.0
1324,598.0,597.0,553.0,4.0,4.0,3.0
1325,597.0,597.0,553.0,4.0,4.0,4.0
1326,597.0,597.0,553.0,4.0,3.0,4.0
1327,597.0,596.0,552.0,3.0,5.0,4.0
1328,596.0,597.0,553.0,4.0,4.0,4.0
1329,597.0,596.0,553.0,4.0,4.0,4.0
1330,596.0,596.0,552.0,4.0,4.0,4.0
1331,596.0,596.0,552.0,4.0,4.0,4.0
1332,596.0,596.0,552.0,4.0,4.0,4.0
1333,596.0,596.0,553.0,4.0,4.0,4.0
1334,596.0,596.0,552.0,4.0,4.0,4.0
1335,596.0,596.0,552.0,3.0,4.0,4.0
1336,596.0,596.0,552.0,4.0,4.0,4.0
1337,596.0,596.0,553.0,4.0,4.0,4.0
1338,596.0,597.0,553.0,4.0,4.0,4.0
1339,597.0,597.0,553.0,4.0,4.0,4.0
1340,597.0,597.0,553.0,5.0,3.0,4.0
1341,597.0,596.0,553.0,3.0,4.0,3.0
1342,596.0,597.0,553.0,4.0,4.0,4.0
1343,597.0,596.0,553.0,4.0,4.0,4.0
1344,596.0,597.0,553.0,4.0,4.0,4.0
1345,597.0,597.0,553.0,4.0,4.0,4.0
1346,597.0,597.0,553.0,3.0,4.0,4.0
1347,597.0,597.0,553.0,4.0,4.0,4.0
1348,597.0,597.0,553.0,4.0,3.0,3.0
1349,597.0,597.0,553.0,4.0,3.0,4.0
1350,597.0,598.0,553.0,4.0,4.0,4.0
1351,598.0,598.0,553.0,4.0,4.0,5.0
1352,598.0,598.0,553.0,4.0,4.0,4.0
1353,598.0,599.0,553.0,4.0,4.0,4.0
1354,599.0,599.0,552.0,4.0,4.0,4.0
1355,599.0,599.0,552.0,4.0,4.0,4.0
1356,599.0,600.0,552.0,4.0,3.0,4.0
1357,600.0,600.0,552.0,4.0,4.0,4.0
1358,600.0,600.0,552.0,4.0,4.0,4.0
1359,600.0,600.0,552.0,4.0,3.0,4.0
1360,600.0,600.0,552.0,4.0,3.0,4.0
1361,600.0,600.0,553.0,4.0,4.0,4.0
1362,600.0,600.0,552.0,5.0,4.0,4.0
1363,600.0,599.0,552.0,4.0,4.0,4.0
1364,599.0,599.0,552.0,4.0,4.0,4.0
1365,599.0,599.0,552.0,4.0,4.0,4.0
1366,599.0,598.0,552.0,4.0,4.0,4.0
1367,598.0,598.0,552.0,4.0,4.0,4.0
1368,598.0,598.0,552.0,4.0,4.0,4.0
1369,598.0,598.0,552.0,4.0,4.0,4.0
1370,598.0,597.0,552.0,4.0,4.0,4.0
1371,597.0,597.0,552.0,4.0,4.0,4.0
1372,597.0,596.0,553.0,3.0,4.0,4.0
1373,596.0,596.0,553.0,5.0,4.0,4.0
1374,596.0,596.0,554.0,4.0,3.0,4.0
1375,596.0,596.0,554.0,4.0,4.0,4.0
1376,596.0,596.0,553.0,3.0,4.0,3.0
1377,596.0,596.0,554.0,4.0,3.0,4.0
1378,596.0,596.0,554.0,4.0,3.0,4.0
1379,596.0,596.0,554.0,4.0,4.0,4.0
1380,596.0,595.0,554.0,4.0,4.0,4.0
1381,595.0,596.0,554.0,4.0,4.0,4.0
1382,596.0,596.0,554.0,4.0,4.0,4.0
1383,596.0,596.0,554.0,4.0,4.0,4.0
1384,596.0,597.0,554.0,4.0,4.0,4.0
1385,597.0,597.0,554.0,4.0,4.0,4.0
1386,597.0,597.0,554.0,4.0,4.0,4.0
1387,597.0,597.0,554.0,3.0,4.0,4.0
1388,597.0,598.0,554.0,4.0,4.0,4.0
1389,598.0,598.0,554.0,4.0,4.0,4.0
1390,598.0,598.0,554.0,4.0,4.0,4.0
1391,598.0,598.0,553.0,4.0,4.0,4.0
1392,598.0,598.0,554.0,4.0,3.0,4.0
1393,598.0,598.0,554.0,4.0,4.0,4.0
1394,598.0,598.0,554.0,4.0,4.0,4.0
1395,598.0,598.0,554.0,4.0,4.0,5.0
1396,598.0,598.0,554.0,4.0,4.0,4.0
1397,598.0,598.0,554.0,4.0,3.0,4.0
1398,598.0,598.0,554.0,4.0,4.0,4.0
1399,598.0,598.0,554.0,4.0,4.0,4.0
1400,598.0,598.0,554.0,3.0,3.0,3.0
1401,598.0,598.0,553.0,4.0,4.0,4.0
1402,598.0,598.0,553.0,4.0,4.0,4.0
1403,598.0,597.0,553.0,3.0,3.0,3.0
1404,597.0,597.0,553.0,4.0,4.0,4.0
1405,597.0,597.0,553.0,4.0,4.0,4.0
1406,597.0,597.0,553.0,4.0,4.0,4.0
1407,597.0,597.0,553.0,4.0,4.0,4.0
1408,597.0,597.0,554.0,4.0,5.0,4.0
1409,597.0,597.0,553.0,4.0,4.0,4.0
1410,597.0,597.0,554.0,4.0,4.0,4.0
1411,597.0,597.0,554.0,4.0,4.0,4.0
1412,597.0,597.0,554.0,4.0,4.0,4.0
1413,597.0,597.0,553.0,4.0,4.0,4.0
1414,597.0,597.0,553.0,4.0,4.0,4.0
1415,597.0,597.0,554.0,5.0,3.0,4.0
1416,597.0,597.0,553.0,4.0,4.0,4.0
1417,597.0,597.0,553.0,4.0,4.0,4.0
1418,597.0,597.0,553.0,5.0,4.0,4.0
1419,597.0,597.0,553.0,4.0,4.0,4.0
1420,597.0,597.0,553.0,4.0,4.0,4.0
1421,597.0,597.0,553.0,4.0,4.0,4.0
1422,597.0,597.0,553.0,4.0,4.0,4.0
1423,597.0,597.0,553.0,4.0,3.0,4.0
1424,597.0,597.0,553.0,4.0,4.0,4.0
1425,597.0,597.0,553.0,4.0,4.0,4.0
1426,597.0,597.0,553.0,4.0,4.0,4.0
1427,597.0,597.0,553.0,4.0,4.0,4.0
1428,597.0,597.0,552.0,4.0,4.0,4.0
1429,597.0,598.0,553.0,4.0,4.0,4.0
1430,598.0,597.0,553.0,4.0,3.0,4.0
1431,597.0,598.0,552.0,4.0,5.0,4.0
1432,598.0,598.0,553.0,4.0,4.0,4.0
1433,598.0,597.0,553.0,4.0,4.0,4.0
1434,597.0,597.0,553.0,4.0,3.0,4.0
1435,597.0,598.0,552.0,4.0,4.0,4.0
1436,598.0,598.0,552.0,4.0,3.0,4.0
1437,598.0,598.0,552.0,4.0,4.0,4.0
1438,598.0,598.0,552.0,5.0,4.0,4.0
1439,598.0,598.0,552.0,4.0,4.0,3.0
1440,598.0,598.0,552.0,4.0,4.0,4.0
1441,598.0,598.0,551.0,4.0,3.0,4.0
1442,598.0,599.0,552.0,3.0,4.0,4.0
1443,599.0,599.0,552.0,4.0,4.0,4.0
1444,599.0,599.0,552.0,4.0,4.0,3.0
1445,599.0,600.0,552.0,4.0,4.0,4.0
1446,600.0,600.0,552.0,4.0,4.0,4.0
1447,600.0,600.0,552.0,5.0,4.0,4.0
1448,600.0,600.0,553.0,4.0,4.0,4.0
1449,600.0,600.0,553.0,4.0,4.0,4.0
1450,600.0,600.0,553.0,4.0,4.0,4.0
1451,600.0,600.0,553.0,4.0,3.0,4.0
1452,600.0,599.0,553.0,4.0,4.0,4.0
1453,599.0,599.0,553.0,4.0,4.0,4.0
1454,599.0,598.0,553.0,4.0,4.0,4.0
1455,598.0,598.0,553.0,4.0,4.0,4.0
1456,598.0,598.0,553.0,4.0,4.0,4.0
1457,598.0,597.0,554.0,3.0,4.0,4.0
1458,597.0,597.0,553.0,4.0,4.0,4.0
1459,597.0,597.0,554.0,4.0,4.0,4.0
1460,597.0,596.0,554.0,4.0,4.0,4.0
1461,596.0,596.0,554.0,4.0,4.0,4.0
1462,596.0,596.0,554.0,4.0,3.0,4.0
1463,596.0,596.0,554.0,4.0,4.0,4.0
1464,596.0,595.0,554.0,4.0,4.0,2.0
1465,595.0,595.0,554.0,4.0,4.0,4.0
1466,595.0,595.0,554.0,4.0,4.0,4.0
1467,595.0,595.0,554.0,4.0,4.0,4.0
1468,595.0,595.0,553.0,4.0,4.0,4.0
1469,595.0,595.0,554.0,4.0,4.0,5.0
1470,595.0,595.0,554.0,4.0,4.0,4.0
1471,595.0,595.0,554.0,5.0,4.0,4.0
1472,595.0,596.0,554.0,3.0,4.0,4.0
1473,596.0,597.0,554.0,4.0,4.0,4.0
1474,597.0,597.0,554.0,4.0,3.0,4.0
1475,597.0,597.0,554.0,4.0,4.0,3.0
1476,597.0,597.0,554.0,3.0,4.0,4.0
1477,597.0,597.0,554.0,4.0,4.0,4.0
1478,597.0,597.0,554.0,4.0,4.0,4.0
1479,597.0,597.0,554.0,4.0,4.0,4.0
1480,597.0,598.0,554.0,4.0,3.0,4.0
1481,598.0,598.0,554.0,3.0,4.0,4.0
1482,598.0,597.0,554.0,3.0,4.0,4.0
1483,597.0,598.0,555.0,4.0,3.0,5.0
1484,598.0,598.0,554.0,4.0,4.0,4.0
1485,598.0,598.0,554.0,4.0,3.0,4.0
1486,598.0,598.0,554.0,4.0,4.0,4.0
1487,598.0,598.0,554.0,4.0,4.0,4.0
1488,598.0,598.0,554.0,4.0,4.0,4.0
1489,598.0,598.0,554.0,4.0,4.0,4.0
1490,598.0,598.0,553.0,4.0,4.0,4.0
1491,598.0,598.0,554.0,4.0,4.0,4.0
1492,598.0,598.0,553.0,4.0,4.0,3.0
1493,598.0,598.0,554.0,4.0,3.0,4.0
1494,598.0,597.0,553.0,4.0,4.0,4.0
1495,597.0,597.0,554.0,4.0,4.0,4.0
1496,597.0,597.0,553.0,4.0,4.0,4.0
1497,597.0,597.0,553.0,4.0,4.0,4.0
1498,597.0,597.0,553.0,3.0,4.0,4.0
1499,597.0,597.0,553.0,4.0,4.0,4.0
1500,597.0,596.0,553.0,4.0,5.0,4.0
1501,596.0,596.0,553.0,4.0,4.0,4.0
1502,596.0,597.0,552.0,4.0,4.0,4.0
1503,597.0,596.0,552.0,4.0,3.0,4.0
1504,596.0,597.0,553.0,4.0,4.0,4.0
1505,597.0,597.0,553.0,4.0,4.0,4.0
1506,597.0,597.0,553.0,4.0,4.0,4.0
1507,597.0,597.0,552.0,4.0,4.0,4.0
1508,597.0,596.0,552.0,4.0,4.0,6.0
1509,596.0,597.0,553.0,4.0,5.0,4.0
1510,597.0,596.0,553.0,4.0,4.0,4.0
1511,596.0,597.0,552.0,4.0,4.0,5.0
1512,597.0,596.0,552.0,4.0,4.0,4.0
1513,596.0,596.0,553.0,4.0,4.0,4.0
1514,596.0,596.0,552.0,3.0,4.0,4.0
1515,596.0,596.0,553.0,4.0,4.0,4.0
1516,596.0,597.0,552.0,4.0,4.0,4.0
1517,597.0,597.0,553.0,5.0,4.0,4.0
1518,597.0,597.0,553.0,4.0,4.0,4.0
1519,597.0,598.0,553.0,4.0,4.0,4.0
1520,598.0,598.0,552.0,4.0,4.0,4.0
1521,598.0,598.0,552.0,4.0,4.0,4.0
1522,598.0,598.0,553.0,4.0,3.0,4.0
1523,598.0,599.0,552.0,4.0,4.0,4.0
1524,599.0,599.0,552.0,4.0,4.0,4.0
1525,599.0,599.0,552.0,4.0,3.0,4.0
1526,599.0,599.0,553.0,4.0,4.0,4.0
1527,599.0,598.0,552.0,3.0,4.0,3.0
1528,598.0,598.0,553.0,4.0,3.0,4.0
1529,598.0,598.0,553.0,4.0,4.0,3.0
1530,598.0,598.0,552.0,5.0,4.0,4.0
1531,598.0,598.0,552.0,4.0,4.0,4.0
1532,598.0,598.0,553.0,5.0,3.0,4.0
1533,598.0,598.0,552.0,4.0,4.0,4.0
1534,598.0,598.0,552.0,4.0,4.0,4.0
1535,598.0,598.0,553.0,4.0,4.0,4.0
1536,598.0,598.0,553.0,4.0,4.0,4.0
1537,598.0,597.0,552.0,4.0,3.0,4.0
1538,597.0,597.0,552.0,3.0,4.0,4.0
1539,597.0,597.0,552.0,4.0,4.0,5.0
1540,597.0,597.0,552.0,3.0,4.0,4.0
1541,597.0,597.0,553.0,4.0,4.0,4.0
1542,597.0,598.0,552.0,4.0,4.0,4.0
1543,598.0,597.0,553.0,4.0,4.0,4.0
1544,597.0,598.0,553.0,4.0,4.0,4.0
1545,598.0,597.0,553.0,3.0,4.0,4.0
1546,597.0,597.0,553.0,4.0,4.0,4.0
1547,597.0,597.0,553.0,4.0,5.0,3.0
1548,597.0,597.0,553.0,4.0,4.0,4.0
1549,597.0,597.0,553.0,3.0,4.0,4.0
1550,597.0,597.0,553.0,4.0,3.0,4.0
1551,597.0,597.0,553.0,4.0,4.0,4.0
1552,597.0,596.0,553.0,4.0,4.0,4.0
1553,596.0,596.0,553.0,4.0,4.0,3.0
1554,596.0,596.0,553.0,4.0,4.0,4.0
1555,596.0,596.0,554.0,4.0,3.0,4.0
1556,596.0,596.0,554.0,4.0,4.0,4.0
1557,596.0,596.0,553.0,4.0,5.0,3.0
1558,596.0,596.0,553.0,4.0,4.0,3.0
1559,596.0,596.0,553.0,4.0,4.0,4.0
1560,596.0,596.0,553.0,3.0,3.0,4.0
1561,596.0,597.0,553.0,4.0,4.0,4.0
1562,597.0,597.0,553.0,4.0,4.0,4.0
1563,597.0,597.0,553.0,4.0,4.0,4.0
1564,597.0,598.0,553.0,4.0,4.0,4.0
1565,598.0,598.0,554.0,4.0,3.0,4.0
1566,598.0,598.0,554.0,4.0,4.0,4.0
1567,598.0,598.0,554.0,4.0,4.0,4.0
1568,598.0,598.0,553.0,4.0,4.0,4.0
1569,598.0,598.0,554.0,4.0,4.0,4.0
1570,598.0,598.0,553.0,4.0,4.0,4.0
1571,598.0,599.0,553.0,5.0,4.0,3.0
1572,599.0,598.0,553.0,4.0,4.0,4.0
1573,598.0,599.0,553.0,5.0,4.0,4.0
1574,599.0,598.0,553.0,4.0,4.0,4.0
1575,598.0,598.0,553.0,4.0,4.0,4.0
1576,598.0,598.0,554.0,4.0,4.0,4.0
1577,598.0,598.0,554.0,3.0,3.0,4.0
1578,598.0,598.0,553.0,3.0,4.0,4.0
1579,598.0,598.0,554.0,3.0,4.0,4.0
1580,598.0,598.0,553.0,4.0,4.0,4.0
1581,598.0,598.0,553.0,4.0,4.0,4.0
1582,598.0,598.0,554.0,4.0,4.0,4.0
1583,598.0,597.0,554.0,4.0,4.0,4.0
1584,597.0,597.0,553.0,4.0,3.0,4.0
1585,597.0,597.0,554.0,4.0,4.0,4.0
1586,597.0,596.0,553.0,4.0,4.0,4.0
1587,596.0,596.0,553.0,4.0,4.0,5.0
1588,596.0,596.0,554.0,4.0,4.0,4.0
1589,596.0,596.0,553.0,4.0,4.0,4.0
1590,596.0,596.0,554.0,4.0,4.0,4.0
1591,596.0,596.0,553.0,4.0,4.0,4.0
1592,596.0,596.0,554.0,4.0,3.0,4.0
1593,596.0,597.0,554.0,4.0,4.0,4.0
1594,597.0,597.0,554.0,4.0,3.0,4.0
1595,597.0,597.0,554.0,4.0,4.0,4.0
1596,597.0,598.0,555.0,4.0,4.0,4.0
1597,598.0,597.0,554.0,4.0,4.0,4.0
1598,597.0,598.0,554.0,4.0,4.0,4.0
1599,598.0,598.0,554.0,4.0,4.0,4.0
1600,598.0,597.0,554.0,4.0,3.0,4.0
1601,597.0,597.0,554.0,4.0,4.0,4.0
1602,597.0,597.0,554.0,4.0,4.0,4.0
1603,597.0,597.0,554.0,4.0,4.0,4.0
1604,597.0,597.0,554.0,3.0,3.0,4.0
1605,597.0,596.0,554.0,4.0,4.0,4.0
1606,596.0,596.0,554.0,4.0,4.0,4.0
1607,596.0,597.0,554.0,4.0,4.0,4.0
1608,597.0,597.0,554.0,4.0,4.0,4.0
1609,597.0,597.0,554.0,4.0,4.0,4.0
1610,597.0,596.0,554.0,4.0,4.0,4.0
1611,596.0,597.0,554.0,3.0,4.0,4.0
1612,597.0,597.0,553.0,3.0,4.0,3.0
1613,597.0,596.0,553.0,4.0,4.0,4.0
1614,596.0,597.0,553.0,3.0,4.0,4.0
1615,597.0,597.0,553.0,4.0,5.0,4.0
1616,597.0,597.0,553.0,4.0,4.0,4.0
1617,597.0,597.0,553.0,4.0,4.0,5.0
1618,597.0,596.0,553.0,4.0,4.0,4.0
1619,596.0,596.0,553.0,5.0,4.0,4.0
1620,596.0,596.0,553.0,4.0,4.0,4.0
1621,596.0,596.0,552.0,4.0,4.0,4.0
1622,596.0,596.0,553.0,4.0,4.0,4.0
1623,596.0,596.0,553.0,4.0,4.0,4.0
1624,596.0,596.0,553.0,4.0,4.0,4.0
1625,596.0,596.0,552.0,4.0,4.0,4.0
1626,596.0,596.0,553.0,4.0,4.0,4.0
1627,596.0,596.0,553.0,4.0,4.0,4.0
1628,596.0,596.0,553.0,4.0,4.0,4.0
1629,596.0,596.0,552.0,4.0,4.0,4.0
1630,596.0,596.0,552.0,4.0,4.0,4.0
1631,596.0,597.0,553.0,3.0,4.0,4.0
1632,597.0,597.0,553.0,4.0,4.0,4.0
1633,597.0,597.0,553.0,3.0,4.0,4.0
1634,597.0,597.0,553.0,4.0,4.0,4.0
1635,597.0,597.0,554.0,4.0,3.0,3.0
1636,597.0,597.0,553.0,3.0,4.0,5.0
1637,597.0,597.0,553.0,4.0,4.0,4.0
1638,597.0,596.0,553.0,4.0,4.0,4.0
1639,596.0,597.0,553.0,4.0,4.0,4.0
1640,597.0,596.0,553.0,4.0,3.0,4.0
1641,596.0,596.0,553.0,4.0,4.0,4.0
1642,596.0,596.0,553.0,4.0,3.0,4.0
1643,596.0,596.0,553.0,4.0,4.0,5.0
1644,596.0,596.0,554.0,4.0,4.0,4.0
1645,596.0,596.0,554.0,4.0,4.0,4.0
1646,596.0,597.0,553.0,3.0,4.0,4.0
1647,597.0,597.0,553.0,4.0,4.0,4.0
1648,597.0,597.0,553.0,3.0,4.0,4.0
1649,597.0,597.0,553.0,3.0,4.0,4.0
1650,597.0,597.0,553.0,4.0,3.0,4.0
1651,597.0,597.0,553.0,3.0,4.0,4.0
1652,597.0,597.0,553.0,4.0,4.0,4.0
1653,597.0,597.0,553.0,4.0,4.0,3.0
1654,597.0,597.0,553.0,5.0,4.0,4.0
1655,597.0,597.0,553.0,4.0,4.0,4.0
1656,597.0,597.0,553.0,4.0,4.0,4.0
1657,597.0,598.0,554.0,4.0,4.0,4.0
1658,598.0,597.0,554.0,4.0,3.0,4.0
1659,597.0,597.0,553.0,4.0,4.0,4.0
1660,597.0,597.0,553.0,4.0,4.0,4.0
1661,597.0,597.0,553.0,3.0,4.0,4.0
1662,597.0,596.0,553.0,4.0,3.0,4.0
1663,596.0,597.0,553.0,4.0,4.0,4.0
1664,597.0,596.0,553.0,5.0,3.0,4.0
1665,596.0,596.0,553.0,4.0,4.0,4.0
1666,596.0,596.0,552.0,4.0,3.0,3.0
1667,596.0,596.0,553.0,4.0,4.0,4.0
1668,596.0,596.0,553.0,4.0,4.0,4.0
1669,596.0,595.0,553.0,4.0,3.0,4.0
1670,595.0,596.0,553.0,4.0,4.0,4.0
1671,596.0,596.0,553.0,4.0,4.0,4.0
1672,596.0,596.0,553.0,4.0,4.0,4.0
1673,596.0,596.0,553.0,4.0,4.0,3.0
1674,596.0,596.0,553.0,4.0,3.0,4.0
1675,596.0,596.0,553.0,4.0,4.0,4.0
1676,596.0,596.0,553.0,4.0,4.0,4.0
1677,596.0,596.0,553.0,4.0,4.0,4.0
1678,596.0,596.0,554.0,4.0,4.0,3.0
1679,596.0,595.0,552.0,4.0,4.0,4.0
1680,595.0,595.0,552.0,3.0,4.0,5.0
1681,595.0,595.0,552.0,4.0,4.0,4.0
1682,595.0,595.0,551.0,4.0,4.0,4.0
1683,595.0,595.0,552.0,4.0,4.0,4.0
1684,595.0,595.0,552.0,3.0,4.0,4.0
1685,595.0,595.0,553.0,4.0,3.0,4.0
1686,595.0,596.0,552.0,4.0,4.0,4.0
1687,596.0,596.0,552.0,4.0,4.0,5.0
1688,596.0,596.0,552.0,4.0,4.0,4.0
1689,596.0,596.0,552.0,4.0,4.0,5.0
1690,596.0,597.0,553.0,5.0,4.0,4.0
1691,597.0,597.0,553.0,4.0,4.0,4.0
1692,597.0,598.0,554.0,4.0,4.0,4.0
1693,598.0,599.0,554.0,3.0,4.0,4.0
1694,599.0,599.0,555.0,4.0,4.0,4.0
1695,599.0,600.0,554.0,4.0,3.0,4.0
1696,600.0,600.0,555.0,3.0,4.0,4.0
1697,600.0,600.0,554.0,3.0,4.0,5.0
1698,600.0,600.0,555.0,4.0,4.0,4.0
1699,600.0,600.0,555.0,4.0,4.0,4.0
1700,600.0,600.0,555.0,4.0,4.0,4.0
1701,600.0,600.0,554.0,4.0,3.0,4.0
1702,600.0,600.0,554.0,4.0,4.0,4.0
1703,600.0,601.0,554.0,4.0,4.0,4.0
1704,601.0,600.0,554.0,4.0,4.0,4.0
1705,600.0,600.0,553.0,4.0,4.0,4.0
1706,600.0,600.0,554.0,4.0,3.0,4.0
1707,600.0,600.0,553.0,4.0,4.0,4.0
1708,600.0,600.0,553.0,4.0,4.0,4.0
1709,600.0,600.0,553.0,4.0,4.0,4.0
1710,600.0,599.0,554.0,4.0,4.0,4.0
1711,599.0,599.0,554.0,4.0,3.0,4.0
1712,599.0,599.0,555.0,4.0,4.0,4.0
1713,599.0,598.0,555.0,4.0,4.0,4.0
1714,598.0,598.0,555.0,4.0,4.0,4.0
1715,598.0,598.0,555.0,4.0,4.0,5.0
1716,598.0,598.0,555.0,4.0,4.0,4.0
1717,598.0,598.0,555.0,4.0,4.0,4.0
1718,598.0,597.0,555.0,4.0,3.0,4.0
1719,597.0,596.0,554.0,2.0,5.0,4.0
1720,596.0,596.0,554.0,3.0,4.0,4.0
1721,596.0,596.0,555.0,4.0,4.0,4.0
1722,596.0,596.0,555.0,4.0,4.0,4.0
1723,596.0,596.0,555.0,5.0,4.0,4.0
1724,596.0,596.0,555.0,4.0,4.0,4.0
1725,596.0,597.0,554.0,4.0,4.0,4.0
1726,597.0,596.0,554.0,4.0,4.0,4.0
1727,596.0,596.0,554.0,4.0,4.0,4.0
1728,596.0,596.0,554.0,4.0,4.0,4.0
1729,596.0,596.0,555.0,4.0,4.0,4.0
1730,596.0,596.0,554.0,5.0,4.0,4.0
1731,596.0,597.0,554.0,3.0,4.0,4.0
1732,597.0,597.0,554.0,4.0,4.0,4.0
1733,597.0,598.0,554.0,4.0,3.0,4.0
1734,598.0,598.0,555.0,4.0,4.0,3.0
1735,598.0,599.0,555.0,4.0,3.0,4.0
1736,599.0,599.0,555.0,4.0,4.0,4.0
1737,599.0,599.0,555.0,3.0,4.0,4.0
1738,599.0,599.0,555.0,4.0,4.0,4.0
1739,599.0,598.0,554.0,3.0,4.0,4.0
1740,598.0,599.0,554.0,4.0,4.0,4.0
1741,599.0,598.0,554.0,4.0,4.0,4.0
1742,598.0,598.0,554.0,3.0,3.0,4.0
1743,598.0,598.0,554.0,3.0,3.0,5.0
1744,598.0,598.0,554.0,4.0,4.0,4.0
1745,598.0,598.0,554.0,4.0,4.0,4.0
1746,598.0,598.0,554.0,4.0,4.0,3.0
1747,598.0,599.0,553.0,4.0,4.0,4.0
1748,599.0,599.0,553.0,3.0,3.0,4.0
1749,599.0,598.0,554.0,4.0,4.0,3.0
1750,598.0,598.0,554.0,4.0,4.0,4.0
1751,598.0,598.0,554.0,4.0,4.0,4.0
1752,598.0,598.0,553.0,4.0,4.0,4.0
1753,598.0,597.0,553.0,4.0,4.0,4.0
1754,597.0,597.0,554.0,4.0,4.0,4.0
1755,597.0,597.0,553.0,4.0,3.0,4.0
1756,597.0,597.0,553.0,4.0,4.0,3.0
1757,597.0,597.0,553.0,4.0,4.0,4.0
1758,597.0,597.0,554.0,4.0,4.0,5.0
1759,597.0,597.0,553.0,4.0,4.0,4.0
1760,597.0,597.0,553.0,4.0,4.0,4.0
1761,597.0,596.0,553.0,4.0,4.0,4.0
1762,596.0,596.0,553.0,4.0,4.0,4.0
1763,596.0,597.0,554.0,4.0,3.0,4.0
1764,597.0,596.0,554.0,4.0,4.0,4.0
1765,596.0,596.0,553.0,3.0,4.0,4.0
1766,596.0,597.0,553.0,4.0,4.0,3.0
1767,597.0,596.0,554.0,4.0,4.0,4.0
1768,596.0,597.0,554.0,4.0,4.0,4.0
1769,597.0,597.0,553.0,4.0,5.0,4.0
1770,597.0,598.0,554.0,4.0,4.0,4.0
1771,598.0,597.0,553.0,4.0,4.0,4.0
1772,597.0,598.0,554.0,4.0,4.0,4.0
1773,598.0,597.0,553.0,4.0,4.0,4.0
1774,597.0,598.0,554.0,4.0,4.0,4.0
1775,598.0,597.0,554.0,3.0,4.0,4.0
1776,597.0,597.0,553.0,4.0,4.0,4.0
1777,597.0,597.0,553.0,4.0,4.0,4.0
1778,597.0,597.0,553.0,4.0,4.0,4.0
1779,597.0,597.0,553.0,4.0,4.0,4.0
1780,597.0,597.0,553.0,3.0,4.0,4.0
1781,597.0,597.0,554.0,4.0,4.0,4.0
1782,597.0,597.0,553.0,4.0,4.0,4.0
1783,597.0,597.0,553.0,4.0,4.0,4.0
1784,597.0,597.0,554.0,4.0,4.0,4.0
1785,597.0,597.0,553.0,4.0,3.0,5.0
1786,597.0,596.0,553.0,4.0,4.0,4.0
1787,596.0,597.0,553.0,4.0,4.0,4.0
1788,597.0,596.0,553.0,4.0,3.0,4.0
1789,596.0,596.0,553.0,4.0,4.0,4.0
1790,596.0,596.0,553.0,4.0,4.0,4.0
1791,596.0,596.0,553.0,4.0,4.0,4.0
1792,596.0,596.0,553.0,4.0,4.0,4.0
1793,596.0,596.0,554.0,4.0,3.0,4.0
1794,596.0,596.0,554.0,4.0,4.0,2.0
1795,596.0,596.0,554.0,4.0,4.0,4.0
1796,596.0,597.0,554.0,3.0,4.0,4.0
1797,597.0,597.0,554.0,4.0,4.0,4.0
1798,597.0,597.0,554.0,4.0,4.0,4.0
1799,597.0,596.0,554.0,4.0,4.0,4.0
1800,596.0,596.0,553.0,4.0,4.0,4.0
1801,596.0,596.0,554.0,4.0,4.0,4.0
1802,596.0,596.0,553.0,4.0,5.0,4.0
1803,596.0,596.0,554.0,3.0,4.0,4.0
1804,596.0,596.0,554.0,3.0,4.0,4.0
1805,596.0,596.0,554.0,4.0,4.0,4.0
1806,596.0,596.0,554.0,3.0,4.0,4.0
1807,596.0,596.0,554.0,4.0,4.0,4.0
1808,596.0,596.0,554.0,4.0,4.0,4.0
1809,596.0,596.0,554.0,3.0,3.0,3.0
1810,596.0,596.0,553.0,4.0,4.0,3.0
1811,596.0,595.0,554.0,4.0,6.0,4.0
1812,595.0,595.0,553.0,4.0,4.0,4.0
1813,595.0,595.0,553.0,4.0,4.0,4.0
1814,595.0,595.0,553.0,4.0,4.0,4.0
1815,595.0,596.0,553.0,4.0,3.0,4.0
1816,596.0,595.0,553.0,3.0,4.0,4.0
1817,595.0,595.0,553.0,4.0,4.0,3.0
1818,595.0,595.0,553.0,4.0,4.0,4.0
1819,595.0,596.0,553.0,3.0,4.0,2.0
1820,596.0,595.0,553.0,4.0,4.0,4.0
1821,595.0,595.0,553.0,4.0,3.0,4.0
1822,595.0,596.0,553.0,4.0,4.0,4.0
1823,596.0,596.0,553.0,4.0,3.0,6.0
1824,596.0,597.0,553.0,3.0,4.0,4.0
1825,597.0,597.0,553.0,4.0,4.0,4.0
1826,597.0,598.0,554.0,4.0,4.0,4.0
1827,598.0,597.0,553.0,3.0,4.0,4.0
1828,597.0,598.0,553.0,4.0,4.0,4.0
1829,598.0,599.0,554.0,3.0,4.0,4.0
1830,599.0,599.0,554.0,4.0,3.0,3.0
1831,599.0,599.0,553.0,4.0,4.0,4.0
1832,599.0,599.0,553.0,3.0,4.0,3.0
1833,599.0,598.0,554.0,3.0,4.0,4.0
1834,598.0,598.0,554.0,4.0,4.0,4.0
1835,598.0,598.0,554.0,4.0,4.0,4.0
1836,598.0,598.0,554.0,4.0,4.0,4.0
1837,598.0,598.0,554.0,4.0,3.0,4.0
1838,598.0,598.0,553.0,4.0,4.0,4.0
1839,598.0,598.0,553.0,4.0,4.0,4.0
1840,598.0,597.0,554.0,4.0,4.0,4.0
1841,597.0,597.0,553.0,4.0,4.0,3.0
1842,597.0,597.0,553.0,4.0,4.0,4.0
1843,597.0,597.0,554.0,4.0,4.0,4.0
1844,597.0,598.0,554.0,4.0,4.0,4.0
1845,598.0,598.0,554.0,4.0,4.0,4.0
1846,598.0,597.0,554.0,4.0,4.0,4.0
1847,597.0,597.0,554.0,4.0,4.0,4.0
1848,597.0,597.0,554.0,4.0,4.0,4.0
1849,597.0,597.0,554.0,4.0,4.0,4.0
1850,597.0,597.0,555.0,4.0,3.0,3.0
1851,597.0,597.0,554.0,4.0,4.0,4.0
1852,597.0,597.0,554.0,4.0,4.0,4.0
1853,597.0,597.0,554.0,4.0,4.0,3.0
1854,597.0,596.0,554.0,3.0,3.0,3.0
1855,596.0,596.0,553.0,4.0,4.0,4.0
1856,596.0,596.0,554.0,3.0,4.0,3.0
1857,596.0,596.0,553.0,4.0,4.0,4.0
1858,596.0,596.0,553.0,4.0,4.0,4.0
1859,596.0,596.0,553.0,3.0,4.0,4.0
1860,596.0,596.0,554.0,4.0,4.0,4.0
1861,596.0,596.0,554.0,4.0,4.0,4.0
1862,596.0,596.0,554.0,4.0,3.0,4.0
1863,596.0,597.0,554.0,4.0,4.0,4.0
1864,597.0,597.0,554.0,3.0,4.0,3.0
1865,597.0,597.0,554.0,4.0,4.0,4.0
1866,597.0,597.0,555.0,4.0,4.0,3.0
1867,597.0,598.0,555.0,4.0,4.0,4.0
1868,598.0,598.0,555.0,4.0,4.0,4.0
1869,598.0,598.0,555.0,4.0,5.0,4.0
1870,598.0,598.0,556.0,4.0,3.0,4.0
1871,598.0,598.0,555.0,4.0,4.0,3.0
1872,598.0,599.0,555.0,4.0,4.0,4.0
1873,599.0,598.0,555.0,4.0,4.0,4.0
1874,598.0,598.0,555.0,4.0,3.0,4.0
1875,598.0,598.0,555.0,4.0,4.0,4.0
1876,598.0,597.0,555.0,4.0,3.0,4.0
1877,597.0,598.0,555.0,4.0,3.0,4.0
1878,598.0,598.0,554.0,4.0,4.0,4.0
1879,598.0,598.0,555.0,4.0,4.0,4.0
1880,598.0,598.0,554.0,4.0,4.0,4.0
1881,598.0,598.0,555.0,3.0,4.0,3.0
1882,598.0,597.0,555.0,4.0,4.0,4.0
1883,597.0,598.0,555.0,3.0,4.0,4.0
1884,598.0,597.0,555.0,4.0,4.0,4.0
1885,597.0,597.0,554.0,4.0,3.0,4.0
1886,597.0,597.0,554.0,3.0,4.0,4.0
1887,597.0,597.0,555.0,4.0,3.0,3.0
1888,597.0,596.0,554.0,4.0,4.0,4.0
1889,596.0,596.0,554.0,4.0,4.0,4.0
1890,596.0,596.0,554.0,4.0,3.0,4.0
1891,596.0,595.0,554.0,4.0,4.0,4.0
1892,595.0,594.0,553.0,4.0,4.0,4.0
1893,594.0,595.0,554.0,4.0,3.0,4.0
1894,595.0,594.0,553.0,4.0,4.0,3.0
1895,594.0,594.0,553.0,4.0,5.0,4.0
1896,594.0,594.0,553.0,4.0,4.0,4.0
1897,594.0,594.0,554.0,4.0,4.0,4.0
1898,594.0,594.0,553.0,3.0,4.0,4.0
1899,594.0,595.0,554.0,4.0,3.0,5.0
1900,595.0,595.0,553.0,4.0,4.0,4.0
1901,595.0,595.0,554.0,4.0,4.0,4.0
1902,595.0,596.0,554.0,4.0,4.0,4.0
1903,596.0,597.0,554.0,4.0,4.0,4.0
1904,597.0,597.0,554.0,4.0,4.0,5.0
1905,597.0,598.0,554.0,3.0,4.0,4.0
1906,598.0,598.0,554.0,4.0,4.0,4.0
1907,598.0,598.0,554.0,4.0,4.0,4.0
1908,598.0,598.0,555.0,4.0,4.0,4.0
1909,598.0,598.0,554.0,3.0,4.0,4.0
1910,598.0,599.0,554.0,4.0,4.0,4.0
1911,599.0,599.0,554.0,4.0,4.0,4.0
1912,599.0,599.0,555.0,4.0,5.0,4.0
1913,599.0,600.0,555.0,4.0,4.0,4.0
1914,600.0,600.0,555.0,4.0,3.0,4.0
1915,600.0,600.0,554.0,4.0,4.0,4.0
1916,600.0,600.0,555.0,5.0,4.0,4.0
1917,600.0,600.0,555.0,4.0,4.0,4.0
1918,600.0,599.0,554.0,4.0,4.0,4.0
1919,599.0,599.0,554.0,4.0,4.0,4.0
1920,599.0,599.0,554.0,4.0,4.0,4.0
1921,599.0,598.0,554.0,4.0,3.0,4.0
1922,598.0,599.0,555.0,4.0,4.0,4.0
1923,599.0,598.0,555.0,4.0,4.0,3.0
1924,598.0,598.0,554.0,4.0,4.0,4.0
1925,598.0,598.0,555.0,4.0,4.0,4.0
1926,598.0,598.0,555.0,4.0,4.0,4.0
1927,598.0,597.0,555.0,4.0,4.0,4.0
1928,597.0,597.0,555.0,4.0,4.0,3.0
1929,597.0,597.0,555.0,4.0,4.0,4.0
1930,597.0,597.0,554.0,4.0,4.0,4.0
1931,597.0,597.0,554.0,4.0,4.0,4.0
1932,597.0,598.0,554.0,4.0,3.0,4.0
1933,598.0,597.0,554.0,4.0,4.0,4.0
1934,597.0,596.0,554.0,4.0,4.0,4.0
1935,596.0,596.0,554.0,4.0,4.0,5.0
1936,596.0,596.0,555.0,4.0,3.0,4.0
1937,596.0,596.0,555.0,4.0,4.0,4.0
1938,596.0,596.0,555.0,4.0,4.0,4.0
1939,596.0,596.0,555.0,4.0,4.0,4.0
1940,596.0,596.0,555.0,4.0,4.0,4.0
1941,596.0,596.0,555.0,5.0,3.0,4.0
1942,596.0,596.0,555.0,4.0,4.0,4.0
1943,596.0,597.0,555.0,4.0,3.0,4.0
1944,597.0,597.0,554.0,4.0,4.0,4.0
1945,597.0,597.0,555.0,4.0,4.0,4.0
1946,597.0,598.0,554.0,4.0,4.0,4.0
1947,598.0,597.0,554.0,4.0,4.0,4.0
1948,597.0,597.0,553.0,4.0,4.0,4.0
1949,597.0,597.0,554.0,3.0,3.0,4.0
1950,597.0,597.0,554.0,4.0,3.0,4.0
1951,597.0,597.0,554.0,4.0,3.0,4.0
1952,597.0,597.0,554.0,4.0,4.0,4.0
1953,597.0,597.0,554.0,4.0,4.0,4.0
1954,597.0,598.0,554.0,4.0,4.0,5.0
1955,598.0,598.0,554.0,4.0,4.0,4.0
1956,598.0,598.0,554.0,4.0,4.0,4.0
1957,598.0,598.0,554.0,3.0,4.0,4.0
1958,598.0,597.0,554.0,4.0,4.0,4.0
1959,597.0,598.0,554.0,4.0,4.0,4.0
1960,598.0,597.0,554.0,3.0,3.0,4.0
1961,597.0,597.0,554.0,4.0,4.0,4.0
1962,597.0,597.0,554.0,4.0,4.0,4.0
1963,597.0,597.0,554.0,4.0,4.0,4.0
1964,597.0,597.0,554.0,4.0,4.0,4.0
1965,597.0,597.0,553.0,4.0,4.0,4.0
1966,597.0,596.0,553.0,4.0,4.0,4.0
1967,596.0,596.0,553.0,4.0,4.0,4.0
1968,596.0,596.0,554.0,4.0,4.0,4.0
1969,596.0,596.0,553.0,4.0,4.0,4.0
1970,596.0,596.0,554.0,4.0,4.0,4.0
1971,596.0,596.0,553.0,4.0,4.0,4.0
1972,596.0,596.0,553.0,4.0,4.0,4.0
1973,596.0,595.0,554.0,4.0,4.0,4.0
1974,595.0,595.0,553.0,4.0,4.0,4.0
1975,595.0,595.0,554.0,4.0,4.0,4.0
1976,595.0,595.0,554.0,5.0,4.0,4.0
1977,595.0,595.0,554.0,4.0,4.0,4.0
1978,595.0,595.0,553.0,4.0,3.0,4.0
1979,595.0,595.0,554.0,4.0,4.0,4.0
1980,595.0,595.0,553.0,4.0,4.0,4.0
1981,595.0,594.0,553.0,4.0,4.0,4.0
1982,594.0,594.0,553.0,4.0,4.0,4.0
1983,594.0,594.0,554.0,4.0,4.0,4.0
1984,594.0,594.0,553.0,3.0,4.0,4.0
1985,594.0,594.0,553.0,3.0,4.0,4.0
1986,594.0,594.0,553.0,5.0,4.0,4.0
1987,594.0,595.0,553.0,4.0,4.0,4.0
1988,595.0,595.0,553.0,4.0,4.0,4.0
1989,595.0,595.0,553.0,4.0,4.0,4.0
1990,595.0,596.0,553.0,4.0,4.0,4.0
1991,596.0,596.0,553.0,4.0,4.0,5.0
1992,596.0,596.0,554.0,4.0,4.0,4.0
1993,596.0,596.0,553.0,3.0,4.0,4.0
1994,596.0,597.0,554.0,4.0,4.0,4.0
1995,597.0,597.0,553.0,4.0,3.0,4.0
1996,597.0,597.0,554.0,4.0,4.0,4.0
1997,597.0,597.0,554.0,4.0,4.0,4.0
1998,597.0,597.0,554.0,4.0,4.0,4.0
1999,597.0,597.0,554.0,3.0,4.0,3.0
2000,597.0,597.0,554.0,4.0,4.0,4.0
2001,597.0,597.0,554.0,4.0,4.0,4.0
2002,597.0,598.0,554.0,4.0,4.0,4.0
2003,598.0,597.0,554.0,4.0,3.0,3.0
2004,597.0,597.0,554.0,4.0,4.0,4.0
2005,597.0,597.0,554.0,4.0,4.0,4.0
2006,597.0,597.0,555.0,3.0,4.0,4.0
2007,597.0,596.0,555.0,4.0,4.0,4.0
2008,596.0,596.0,555.0,4.0,4.0,4.0
2009,596.0,597.0,555.0,4.0,4.0,4.0
2010,597.0,597.0,555.0,4.0,4.0,4.0
2011,597.0,597.0,555.0,4.0,4.0,3.0
2012,597.0,597.0,555.0,4.0,4.0,4.0
2013,597.0,597.0,555.0,4.0,3.0,4.0
2014,597.0,597.0,556.0,4.0,4.0,4.0
2015,597.0,597.0,556.0,4.0,4.0,4.0
2016,597.0,597.0,556.0,4.0,4.0,4.0
2017,597.0,597.0,556.0,4.0,4.0,4.0
2018,597.0,598.0,555.0,4.0,4.0,4.0
2019,598.0,597.0,555.0,4.0,4.0,5.0
2020,597.0,597.0,555.0,3.0,4.0,4.0
2021,597.0,596.0,555.0,4.0,4.0,5.0
2022,596.0,596.0,556.0,4.0,5.0,4.0
2023,596.0,597.0,555.0,4.0,4.0,4.0
2024,597.0,596.0,555.0,4.0,3.0,4.0
2025,596.0,596.0,555.0,5.0,4.0,4.0
2026,596.0,596.0,556.0,4.0,4.0,4.0
2027,596.0,597.0,556.0,5.0,4.0,4.0
2028,597.0,598.0,556.0,4.0,3.0,4.0
2029,598.0,597.0,556.0,4.0,3.0,4.0
2030,597.0,597.0,556.0,4.0,4.0,4.0
2031,597.0,597.0,556.0,4.0,4.0,4.0
2032,597.0,597.0,556.0,3.0,4.0,4.0
2033,597.0,597.0,556.0,4.0,4.0,4.0
2034,597.0,597.0,556.0,4.0,4.0,5.0
2035,597.0,597.0,556.0,4.0,5.0,4.0
2036,597.0,597.0,556.0,3.0,3.0,4.0
2037,597.0,597.0,555.0,4.0,4.0,4.0
2038,597.0,597.0,555.0,4.0,4.0,4.0
2039,597.0,597.0,555.0,4.0,4.0,4.0
2040,597.0,597.0,555.0,4.0,3.0,5.0
2041,597.0,597.0,554.0,4.0,4.0,4.0
2042,597.0,596.0,555.0,3.0,3.0,4.0
2043,596.0,597.0,554.0,3.0,4.0,4.0
2044,597.0,597.0,555.0,3.0,4.0,4.0
2045,597.0,597.0,555.0,3.0,4.0,4.0
2046,597.0,597.0,555.0,4.0,4.0,4.0
2047,597.0,597.0,555.0,3.0,4.0,4.0
2048,597.0,597.0,555.0,4.0,3.0,4.0
2049,597.0,597.0,555.0,4.0,4.0,4.0
2050,597.0,597.0,555.0,4.0,4.0,4.0
2051,597.0,598.0,555.0,4.0,4.0,4.0
2052,598.0,598.0,555.0,4.0,4.0,4.0
2053,598.0,598.0,555.0,4.0,4.0,4.0
2054,598.0,598.0,555.0,3.0,4.0,4.0
2055,598.0,598.0,555.0,3.0,4.0,4.0
2056,598.0,598.0,555.0,4.0,4.0,4.0
2057,598.0,599.0,556.0,4.0,4.0,4.0
2058,599.0,598.0,555.0,4.0,4.0,4.0
2059,598.0,598.0,555.0,4.0,4.0,4.0
2060,598.0,598.0,555.0,4.0,3.0,4.0
2061,598.0,598.0,555.0,4.0,4.0,4.0
2062,598.0,597.0,555.0,4.0,4.0,4.0
2063,597.0,597.0,555.0,5.0,4.0,4.0
2064,597.0,596.0,554.0,4.0,4.0,4.0
2065,596.0,596.0,554.0,4.0,3.0,4.0
2066,596.0,596.0,555.0,4.0,4.0,3.0
2067,596.0,596.0,554.0,4.0,4.0,4.0
2068,596.0,596.0,555.0,4.0,4.0,4.0
2069,596.0,596.0,554.0,4.0,4.0,4.0
2070,596.0,596.0,554.0,4.0,3.0,3.0
2071,596.0,595.0,555.0,2.0,3.0,4.0
2072,595.0,596.0,555.0,4.0,4.0,4.0
2073,596.0,596.0,555.0,4.0,4.0,4.0
2074,596.0,596.0,555.0,3.0,3.0,4.0
2075,596.0,596.0,555.0,4.0,3.0,4.0
2076,596.0,595.0,555.0,4.0,4.0,4.0
2077,595.0,596.0,554.0,4.0,4.0,4.0
2078,596.0,596.0,554.0,3.0,4.0,3.0
2079,596.0,596.0,554.0,4.0,5.0,4.0
2080,596.0,596.0,554.0,4.0,4.0,4.0
2081,596.0,596.0,554.0,4.0,4.0,4.0
2082,596.0,596.0,554.0,4.0,4.0,4.0
2083,596.0,596.0,555.0,4.0,4.0,4.0
2084,596.0,596.0,555.0,4.0,4.0,4.0
2085,596.0,596.0,554.0,4.0,4.0,4.0
2086,596.0,596.0,554.0,3.0,4.0,3.0
2087,596.0,596.0,555.0,5.0,3.0,4.0
2088,596.0,596.0,555.0,4.0,3.0,4.0
2089,596.0,596.0,555.0,4.0,4.0,6.0
2090,596.0,596.0,555.0,4.0,4.0,4.0
2091,596.0,596.0,555.0,3.0,4.0,4.0
2092,596.0,596.0,555.0,4.0,4.0,5.0
2093,596.0,596.0,555.0,4.0,4.0,4.0
2094,596.0,596.0,554.0,3.0,4.0,4.0
2095,596.0,596.0,555.0,4.0,4.0,4.0
2096,596.0,596.0,555.0,4.0,4.0,4.0
2097,596.0,596.0,555.0,4.0,4.0,4.0
2098,596.0,596.0,555.0,3.0,4.0,4.0
2099,596.0,596.0,555.0,5.0,4.0,4.0
2100,596.0,596.0,554.0,3.0,4.0,4.0
2101,596.0,596.0,555.0,4.0,4.0,3.0
2102,596.0,596.0,555.0,4.0,3.0,4.0
2103,596.0,595.0,555.0,3.0,4.0,4.0
2104,595.0,595.0,555.0,4.0,4.0,4.0
2105,595.0,595.0,555.0,3.0,4.0,4.0
2106,595.0,595.0,554.0,4.0,4.0,4.0
2107,595.0,595.0,554.0,4.0,3.0,4.0
2108,595.0,596.0,555.0,4.0,4.0,4.0
2109,596.0,596.0,555.0,4.0,3.0,5.0
2110,596.0,596.0,554.0,4.0,4.0,4.0
2111,596.0,596.0,555.0,4.0,4.0,4.0
2112,596.0,596.0,555.0,3.0,4.0,4.0
2113,596.0,596.0,555.0,4.0,4.0,4.0
2114,596.0,596.0,555.0,4.0,4.0,4.0
2115,596.0,596.0,555.0,4.0,3.0,5.0
2116,596.0,596.0,554.0,4.0,4.0,4.0
2117,596.0,596.0,555.0,4.0,4.0,3.0
2118,596.0,596.0,554.0,4.0,4.0,4.0
2119,596.0,596.0,554.0,4.0,3.0,4.0
2120,596.0,596.0,555.0,4.0,4.0,5.0
2121,596.0,596.0,555.0,4.0,4.0,4.0
2122,596.0,597.0,555.0,4.0,4.0,4.0
2123,597.0,597.0,554.0,4.0,4.0,4.0
2124,597.0,597.0,554.0,4.0,4.0,4.0
2125,597.0,596.0,554.0,3.0,4.0,4.0
2126,596.0,597.0,555.0,4.0,4.0,5.0
2127,597.0,597.0,555.0,4.0,4.0,5.0
2128,597.0,596.0,555.0,4.0,4.0,4.0
2129,596.0,596.0,555.0,4.0,4.0,4.0
2130,596.0,596.0,554.0,4.0,4.0,4.0
2131,596.0,596.0,554.0,4.0,4.0,4.0
2132,596.0,596.0,554.0,4.0,4.0,4.0
2133,596.0,596.0,554.0,4.0,3.0,5.0
2134,596.0,596.0,554.0,4.0,4.0,4.0
2135,596.0,596.0,554.0,4.0,4.0,4.0
2136,596.0,596.0,554.0,4.0,3.0,4.0
2137,596.0,596.0,554.0,4.0,4.0,4.0
2138,596.0,596.0,554.0,4.0,4.0,4.0
2139,596.0,596.0,554.0,4.0,4.0,4.0
2140,596.0,596.0,554.0,3.0,4.0,4.0
2141,596.0,595.0,554.0,4.0,4.0,3.0
2142,595.0,596.0,554.0,4.0,4.0,4.0
2143,596.0,596.0,553.0,3.0,4.0,5.0
2144,596.0,596.0,554.0,5.0,4.0,4.0
2145,596.0,597.0,554.0,4.0,4.0,4.0
2146,597.0,597.0,554.0,5.0,4.0,4.0
2147,597.0,597.0,554.0,4.0,4.0,4.0
2148,597.0,597.0,554.0,4.0,4.0,4.0
2149,597.0,598.0,553.0,4.0,4.0,3.0
2150,598.0,598.0,554.0,4.0,4.0,4.0
2151,598.0,597.0,554.0,4.0,4.0,4.0
2152,597.0,597.0,554.0,4.0,4.0,4.0
2153,597.0,597.0,554.0,4.0,3.0,5.0
2154,597.0,597.0,554.0,5.0,4.0,4.0
2155,597.0,597.0,555.0,4.0,4.0,4.0
2156,597.0,596.0,554.0,5.0,4.0,5.0
2157,596.0,596.0,554.0,4.0,4.0,4.0
2158,596.0,597.0,555.0,3.0,4.0,4.0
2159,597.0,596.0,555.0,5.0,3.0,4.0
2160,596.0,596.0,555.0,4.0,4.0,4.0
2161,596.0,596.0,555.0,4.0,4.0,4.0
2162,596.0,596.0,555.0,4.0,4.0,4.0
2163,596.0,596.0,555.0,4.0,4.0,4.0
2164,596.0,596.0,555.0,4.0,4.0,4.0
2165,596.0,596.0,555.0,4.0,4.0,4.0
2166,596.0,596.0,555.0,4.0,4.0,4.0
2167,596.0,597.0,555.0,4.0,4.0,4.0
2168,597.0,597.0,556.0,4.0,4.0,3.0
2169,597.0,597.0,555.0,4.0,3.0,3.0
2170,597.0,597.0,556.0,4.0,4.0,4.0
2171,597.0,598.0,556.0,4.0,4.0,5.0
2172,598.0,598.0,556.0,3.0,4.0,4.0
2173,598.0,598.0,556.0,4.0,4.0,4.0
2174,598.0,598.0,556.0,3.0,4.0,4.0
2175,598.0,597.0,556.0,4.0,4.0,4.0
2176,597.0,598.0,556.0,4.0,4.0,4.0
2177,598.0,597.0,556.0,4.0,3.0,4.0
2178,597.0,598.0,556.0,4.0,4.0,4.0
2179,598.0,597.0,556.0,4.0,4.0,4.0
2180,597.0,597.0,556.0,4.0,4.0,3.0
2181,597.0,597.0,556.0,4.0,4.0,4.0
2182,597.0,597.0,556.0,3.0,4.0,3.0
2183,597.0,597.0,556.0,4.0,4.0,4.0
2184,597.0,596.0,555.0,4.0,4.0,4.0
2185,596.0,596.0,555.0,4.0,4.0,4.0
2186,596.0,597.0,556.0,3.0,4.0,4.0
2187,597.0,597.0,555.0,4.0,3.0,4.0
2188,597.0,596.0,555.0,4.0,4.0,4.0
2189,596.0,596.0,556.0,4.0,4.0,5.0
2190,596.0,597.0,555.0,4.0,4.0,4.0
2191,597.0,597.0,555.0,4.0,4.0,4.0
2192,597.0,598.0,556.0,4.0,3.0,4.0
2193,598.0,598.0,556.0,3.0,3.0,4.0
2194,598.0,598.0,555.0,4.0,4.0,4.0
2195,598.0,599.0,555.0,3.0,4.0,4.0
2196,599.0,599.0,556.0,4.0,4.0,4.0
2197,599.0,599.0,555.0,4.0,4.0,4.0
2198,599.0,599.0,555.0,3.0,3.0,3.0
2199,599.0,598.0,555.0,4.0,4.0,4.0
2200,598.0,598.0,555.0,4.0,6.0,4.0
2201,598.0,599.0,555.0,4.0,4.0,4.0
2202,599.0,598.0,555.0,4.0,4.0,4.0
2203,598.0,599.0,555.0,3.0,4.0,4.0
2204,599.0,599.0,555.0,4.0,4.0,4.0
2205,599.0,598.0,555.0,4.0,4.0,4.0
2206,598.0,598.0,555.0,4.0,3.0,3.0
2207,598.0,598.0,554.0,4.0,3.0,4.0
2208,598.0,599.0,555.0,4.0,5.0,4.0
2209,599.0,599.0,555.0,4.0,4.0,4.0
2210,599.0,598.0,555.0,4.0,4.0,4.0
2211,598.0,598.0,555.0,4.0,4.0,4.0
2212,598.0,598.0,554.0,4.0,4.0,4.0
2213,598.0,597.0,555.0,4.0,4.0,3.0
2214,597.0,597.0,555.0,4.0,4.0,4.0
2215,597.0,598.0,554.0,4.0,4.0,4.0
2216,598.0,597.0,555.0,4.0,4.0,4.0
2217,597.0,597.0,556.0,4.0,4.0,4.0
2218,597.0,597.0,556.0,4.0,4.0,4.0
2219,597.0,597.0,555.0,4.0,4.0,4.0
2220,597.0,597.0,556.0,4.0,3.0,4.0
2221,597.0,597.0,555.0,5.0,4.0,4.0
2222,597.0,596.0,555.0,4.0,4.0,4.0
2223,596.0,597.0,556.0,3.0,4.0,4.0
2224,597.0,597.0,556.0,4.0,4.0,4.0
2225,597.0,596.0,556.0,4.0,3.0,4.0
2226,596.0,596.0,556.0,4.0,4.0,4.0
2227,596.0,596.0,556.0,3.0,4.0,4.0
2228,596.0,595.0,556.0,3.0,4.0,3.0
2229,595.0,595.0,556.0,4.0,4.0,4.0
2230,595.0,595.0,556.0,4.0,4.0,4.0
2231,595.0,594.0,556.0,4.0,4.0,4.0
2232,594.0,594.0,555.0,4.0,4.0,3.0
2233,594.0,593.0,555.0,4.0,4.0,4.0
2234,593.0,594.0,555.0,4.0,4.0,4.0
2235,594.0,594.0,556.0,4.0,4.0,4.0
2236,594.0,594.0,556.0,5.0,4.0,4.0
2237,594.0,594.0,556.0,4.0,4.0,4.0
2238,594.0,594.0,556.0,4.0,4.0,3.0
2239,594.0,595.0,556.0,3.0,4.0,4.0
2240,595.0,595.0,556.0,4.0,4.0,4.0
2241,595.0,596.0,556.0,4.0,4.0,4.0
2242,596.0,596.0,556.0,4.0,3.0,4.0
2243,596.0,596.0,555.0,4.0,4.0,4.0
2244,596.0,596.0,555.0,4.0,5.0,3.0
2245,596.0,597.0,555.0,4.0,3.0,4.0
2246,597.0,597.0,555.0,4.0,4.0,4.0
2247,597.0,598.0,555.0,3.0,4.0,4.0
2248,598.0,597.0,555.0,3.0,4.0,4.0
2249,597.0,597.0,554.0,4.0,4.0,4.0
2250,597.0,598.0,554.0,4.0,4.0,4.0
2251,598.0,597.0,554.0,4.0,4.0,4.0
2252,597.0,597.0,554.0,4.0,3.0,4.0
2253,597.0,597.0,554.0,4.0,4.0,4.0
2254,597.0,597.0,554.0,4.0,3.0,4.0
2255,597.0,597.0,554.0,3.0,4.0,4.0
2256,597.0,597.0,554.0,4.0,4.0,4.0
2257,597.0,598.0,554.0,3.0,4.0,4.0
2258,598.0,597.0,554.0,4.0,4.0,4.0
2259,597.0,598.0,554.0,4.0,4.0,4.0
2260,598.0,597.0,554.0,4.0,4.0,4.0
2261,597.0,597.0,554.0,4.0,4.0,4.0
2262,597.0,597.0,554.0,4.0,2.0,5.0
2263,597.0,597.0,554.0,3.0,4.0,4.0
2264,597.0,597.0,554.0,4.0,4.0,4.0
2265,597.0,596.0,554.0,4.0,4.0,4.0
2266,596.0,596.0,554.0,4.0,4.0,4.0
2267,596.0,596.0,554.0,4.0,4.0,4.0
2268,596.0,596.0,554.0,4.0,4.0,4.0
2269,596.0,596.0,555.0,4.0,4.0,4.0
2270,596.0,597.0,555.0,4.0,4.0,4.0
2271,597.0,597.0,555.0,4.0,4.0,4.0
2272,597.0,597.0,555.0,4.0,5.0,4.0
2273,597.0,597.0,554.0,4.0,5.0,4.0
2274,597.0,597.0,555.0,4.0,4.0,3.0
2275,597.0,597.0,555.0,4.0,4.0,4.0
2276,597.0,596.0,555.0,4.0,4.0,4.0
2277,596.0,597.0,554.0,4.0,4.0,4.0
2278,597.0,597.0,554.0,3.0,3.0,4.0
2279,597.0,596.0,555.0,4.0,4.0,4.0
2280,596.0,596.0,555.0,3.0,4.0,4.0
2281,596.0,597.0,555.0,4.0,4.0,3.0
2282,597.0,596.0,554.0,4.0,3.0,4.0
2283,596.0,596.0,554.0,4.0,4.0,3.0
2284,596.0,597.0,555.0,3.0,4.0,4.0
2285,597.0,597.0,555.0,4.0,4.0,3.0
2286,597.0,597.0,555.0,4.0,4.0,4.0
2287,597.0,597.0,555.0,4.0,4.0,4.0
2288,597.0,597.0,555.0,4.0,4.0,3.0
2289,597.0,597.0,555.0,4.0,4.0,3.0
2290,597.0,598.0,554.0,4.0,4.0,4.0
2291,598.0,598.0,555.0,5.0,4.0,4.0
2292,598.0,598.0,555.0,4.0,3.0,4.0
2293,598.0,598.0,554.0,4.0,4.0,3.0
2294,598.0,598.0,554.0,4.0,4.0,4.0
2295,598.0,598.0,555.0,4.0,4.0,4.0
2296,598.0,598.0,555.0,4.0,4.0,4.0
2297,598.0,598.0,554.0,4.0,4.0,5.0
2298,598.0,598.0,554.0,4.0,3.0,4.0
2299,598.0,598.0,554.0,4.0,4.0,4.0
2300,598.0,597.0,554.0,4.0,3.0,4.0
2301,597.0,597.0,554.0,4.0,4.0,3.0
2302,597.0,597.0,554.0,4.0,4.0,4.0
2303,597.0,597.0,554.0,4.0,4.0,5.0
2304,597.0,597.0,554.0,4.0,4.0,4.0
2305,597.0,597.0,555.0,4.0,4.0,4.0
2306,597.0,597.0,555.0,3.0,4.0,4.0
2307,597.0,597.0,555.0,3.0,4.0,5.0
2308,597.0,597.0,555.0,4.0,4.0,4.0
2309,597.0,597.0,554.0,3.0,4.0,4.0
2310,597.0,596.0,554.0,4.0,4.0,4.0
2311,596.0,596.0,555.0,4.0,3.0,4.0
2312,596.0,597.0,554.0,4.0,3.0,4.0
2313,597.0,596.0,555.0,4.0,4.0,4.0
2314,596.0,597.0,555.0,3.0,3.0,5.0
2315,597.0,596.0,555.0,4.0,4.0,4.0
2316,596.0,596.0,554.0,4.0,4.0,3.0
2317,596.0,596.0,555.0,3.0,4.0,4.0
2318,596.0,596.0,555.0,4.0,4.0,3.0
2319,596.0,596.0,555.0,4.0,5.0,2.0
2320,596.0,596.0,555.0,4.0,4.0,4.0
2321,596.0,596.0,556.0,4.0,4.0,4.0
2322,596.0,596.0,555.0,4.0,3.0,3.0
2323,596.0,596.0,556.0,4.0,3.0,4.0
2324,596.0,596.0,555.0,4.0,4.0,4.0
2325,596.0,596.0,556.0,4.0,3.0,4.0
2326,596.0,596.0,555.0,3.0,4.0,3.0
2327,596.0,595.0,554.0,4.0,3.0,4.0
2328,595.0,595.0,555.0,3.0,4.0,4.0
2329,595.0,595.0,554.0,4.0,4.0,4.0
2330,595.0,595.0,555.0,4.0,4.0,4.0
2331,595.0,595.0,555.0,4.0,4.0,4.0
2332,595.0,595.0,554.0,4.0,4.0,4.0
2333,595.0,595.0,554.0,4.0,3.0,4.0
2334,595.0,595.0,555.0,4.0,4.0,4.0
2335,595.0,596.0,554.0,4.0,4.0,4.0
2336,596.0,597.0,554.0,3.0,3.0,4.0
2337,597.0,596.0,554.0,4.0,4.0,4.0
2338,596.0,596.0,554.0,4.0,4.0,4.0
2339,596.0,596.0,555.0,4.0,3.0,4.0
2340,596.0,597.0,554.0,4.0,5.0,4.0
2341,597.0,597.0,554.0,4.0,3.0,4.0
2342,597.0,597.0,555.0,4.0,3.0,4.0
2343,597.0,597.0,555.0,4.0,4.0,4.0
2344,597.0,597.0,555.0,4.0,4.0,4.0
2345,597.0,598.0,555.0,3.0,3.0,4.0
2346,598.0,597.0,555.0,5.0,4.0,4.0
2347,597.0,597.0,555.0,4.0,4.0,4.0
2348,597.0,597.0,555.0,4.0,4.0,4.0
2349,597.0,597.0,555.0,4.0,4.0,4.0
2350,597.0,597.0,555.0,4.0,4.0,4.0
2351,597.0,597.0,555.0,4.0,4.0,5.0
2352,597.0,597.0,555.0,4.0,4.0,3.0
2353,597.0,597.0,556.0,4.0,4.0,4.0
2354,597.0,597.0,555.0,4.0,4.0,4.0
2355,597.0,597.0,554.0,4.0,4.0,4.0
2356,597.0,598.0,554.0,4.0,4.0,4.0
2357,598.0,597.0,554.0,4.0,4.0,4.0
2358,597.0,597.0,555.0,4.0,4.0,4.0
2359,597.0,597.0,554.0,4.0,4.0,4.0
2360,597.0,596.0,554.0,4.0,4.0,4.0
2361,596.0,596.0,555.0,4.0,4.0,4.0
2362,596.0,596.0,555.0,4.0,4.0,4.0
2363,596.0,596.0,555.0,4.0,4.0,4.0
2364,596.0,596.0,555.0,4.0,4.0,3.0
2365,596.0,596.0,555.0,4.0,4.0,4.0
2366,596.0,596.0,555.0,4.0,4.0,4.0
2367,596.0,596.0,555.0,4.0,4.0,4.0
2368,596.0,596.0,555.0,4.0,4.0,4.0
2369,596.0,595.0,556.0,4.0,4.0,4.0
2370,595.0,596.0,556.0,4.0,4.0,4.0
2371,596.0,595.0,555.0,3.0,4.0,4.0
2372,595.0,595.0,555.0,4.0,3.0,4.0
2373,595.0,595.0,556.0,4.0,3.0,4.0
2374,595.0,596.0,555.0,4.0,4.0,4.0
2375,596.0,596.0,555.0,4.0,4.0,4.0
2376,596.0,596.0,555.0,4.0,4.0,4.0
2377,596.0,597.0,555.0,4.0,4.0,5.0
2378,597.0,596.0,555.0,4.0,4.0,4.0
2379,596.0,596.0,555.0,3.0,4.0,4.0
2380,596.0,596.0,555.0,4.0,3.0,4.0
2381,596.0,597.0,555.0,4.0,4.0,4.0
2382,597.0,597.0,555.0,3.0,4.0,3.0
2383,597.0,597.0,555.0,4.0,4.0,4.0
2384,597.0,597.0,555.0,3.0,4.0,4.0
2385,597.0,598.0,555.0,4.0,4.0,4.0
2386,598.0,598.0,555.0,4.0,4.0,5.0
2387,598.0,597.0,554.0,3.0,4.0,4.0
2388,597.0,597.0,555.0,4.0,4.0,4.0
2389,597.0,597.0,554.0,4.0,3.0,3.0
2390,597.0,597.0,555.0,3.0,5.0,4.0
2391,597.0,597.0,554.0,4.0,4.0,4.0
2392,597.0,597.0,554.0,4.0,4.0,4.0
2393,597.0,597.0,554.0,5.0,4.0,3.0
2394,597.0,596.0,555.0,4.0,4.0,3.0
2395,596.0,596.0,554.0,4.0,4.0,4.0
2396,596.0,595.0,554.0,4.0,4.0,4.0
2397,595.0,595.0,554.0,4.0,4.0,4.0
2398,595.0,595.0,554.0,4.0,4.0,4.0
2399,595.0,595.0,554.0,4.0,4.0,4.0
2400,595.0,595.0,554.0,4.0,4.0,3.0
2401,595.0,595.0,555.0,4.0,4.0,4.0
2402,595.0,596.0,554.0,4.0,4.0,4.0
2403,596.0,596.0,555.0,4.0,4.0,4.0
2404,596.0,596.0,555.0,4.0,4.0,4.0
2405,596.0,597.0,555.0,5.0,4.0,3.0
2406,597.0,597.0,555.0,4.0,4.0,4.0
2407,597.0,597.0,555.0,4.0,3.0,5.0
2408,597.0,597.0,555.0,5.0,4.0,4.0
2409,597.0,598.0,555.0,4.0,4.0,4.0
2410,598.0,598.0,554.0,4.0,4.0,4.0
2411,598.0,598.0,555.0,4.0,4.0,3.0
2412,598.0,598.0,555.0,4.0,4.0,4.0
2413,598.0,598.0,555.0,4.0,3.0,3.0
2414,598.0,598.0,554.0,4.0,4.0,4.0
2415,598.0,598.0,555.0,3.0,4.0,4.0
2416,598.0,597.0,555.0,4.0,3.0,3.0
2417,597.0,597.0,555.0,4.0,4.0,4.0
2418,597.0,598.0,555.0,4.0,4.0,4.0
2419,598.0,598.0,555.0,4.0,3.0,4.0
2420,598.0,598.0,555.0,4.0,4.0,3.0
2421,598.0,598.0,555.0,4.0,4.0,4.0
2422,598.0,597.0,555.0,4.0,4.0,4.0
2423,597.0,597.0,555.0,4.0,4.0,3.0
2424,597.0,597.0,554.0,3.0,4.0,4.0
2425,597.0,597.0,554.0,4.0,3.0,5.0
2426,597.0,597.0,554.0,3.0,4.0,3.0
2427,597.0,596.0,554.0,4.0,4.0,4.0
2428,596.0,596.0,554.0,4.0,4.0,4.0
2429,596.0,596.0,555.0,4.0,3.0,4.0
2430,596.0,596.0,555.0,4.0,3.0,4.0
2431,596.0,596.0,555.0,4.0,4.0,4.0
2432,596.0,596.0,554.0,3.0,4.0,4.0
2433,596.0,596.0,554.0,4.0,4.0,5.0
2434,596.0,595.0,555.0,4.0,4.0,4.0
2435,595.0,595.0,554.0,4.0,3.0,4.0
2436,595.0,596.0,554.0,4.0,4.0,4.0
2437,596.0,596.0,554.0,4.0,4.0,4.0
2438,596.0,596.0,554.0,4.0,4.0,3.0
2439,596.0,596.0,554.0,4.0,4.0,4.0
2440,596.0,596.0,554.0,4.0,3.0,4.0
2441,596.0,597.0,554.0,4.0,4.0,3.0
2442,597.0,597.0,554.0,3.0,3.0,4.0
2443,597.0,597.0,554.0,4.0,4.0,4.0
2444,597.0,597.0,554.0,3.0,4.0,4.0
2445,597.0,597.0,553.0,4.0,3.0,4.0
2446,597.0,598.0,554.0,3.0,4.0,4.0
2447,598.0,597.0,553.0,4.0,4.0,4.0
2448,597.0,597.0,553.0,4.0,4.0,4.0
2449,597.0,597.0,553.0,3.0,3.0,4.0
2450,597.0,597.0,553.0,4.0,4.0,5.0
2451,597.0,597.0,553.0,4.0,4.0,4.0
2452,597.0,597.0,554.0,4.0,4.0,4.0
2453,597.0,597.0,554.0,4.0,4.0,4.0
2454,597.0,597.0,553.0,4.0,3.0,3.0
2455,597.0,597.0,553.0,4.0,4.0,4.0
2456,597.0,597.0,554.0,4.0,4.0,4.0
2457,597.0,597.0,553.0,3.0,3.0,4.0
2458,597.0,597.0,554.0,4.0,4.0,4.0
2459,597.0,596.0,554.0,3.0,4.0,4.0
2460,596.0,596.0,555.0,4.0,4.0,3.0
2461,596.0,597.0,555.0,3.0,4.0,4.0
2462,597.0,597.0,555.0,3.0,4.0,4.0
2463,597.0,597.0,555.0,4.0,4.0,4.0
2464,597.0,597.0,555.0,4.0,4.0,4.0
2465,597.0,597.0,555.0,4.0,4.0,5.0
2466,597.0,597.0,555.0,4.0,4.0,4.0
2467,597.0,597.0,555.0,4.0,4.0,4.0
2468,597.0,597.0,555.0,4.0,4.0,4.0
2469,597.0,597.0,555.0,4.0,4.0,3.0
2470,597.0,597.0,555.0,4.0,4.0,4.0
2471,597.0,596.0,555.0,4.0,4.0,4.0
2472,596.0,596.0,555.0,3.0,4.0,4.0
2473,596.0,596.0,555.0,3.0,4.0,4.0
2474,596.0,595.0,555.0,3.0,4.0,4.0
2475,595.0,596.0,555.0,3.0,4.0,4.0
2476,596.0,596.0,555.0,4.0,4.0,4.0
2477,596.0,595.0,555.0,5.0,4.0,4.0
2478,595.0,595.0,555.0,4.0,4.0,4.0
2479,595.0,595.0,554.0,4.0,4.0,4.0
2480,595.0,595.0,554.0,4.0,4.0,4.0
2481,595.0,595.0,555.0,4.0,5.0,4.0
2482,595.0,595.0,554.0,4.0,4.0,4.0
2483,595.0,595.0,554.0,4.0,4.0,4.0
2484,595.0,595.0,554.0,4.0,4.0,4.0
2485,595.0,594.0,554.0,3.0,3.0,4.0
2486,594.0,595.0,554.0,3.0,4.0,4.0
2487,595.0,595.0,554.0,3.0,4.0,4.0
2488,595.0,595.0,554.0,4.0,4.0,4.0
2489,595.0,596.0,555.0,4.0,4.0,4.0
2490,596.0,597.0,555.0,4.0,4.0,4.0
2491,597.0,597.0,554.0,5.0,4.0,4.0
2492,597.0,597.0,554.0,5.0,4.0,4.0
2493,597.0,597.0,554.0,4.0,4.0,4.0
2494,597.0,598.0,555.0,4.0,4.0,4.0
2495,598.0,598.0,554.0,4.0,4.0,4.0
2496,598.0,599.0,554.0,4.0,4.0,3.0
2497,599.0,599.0,555.0,4.0,4.0,4.0
2498,599.0,599.0,555.0,3.0,4.0,4.0
2499,599.0,599.0,556.0,3.0,4.0,4.0
2500,599.0,600.0,555.0,4.0,4.0,4.0
2501,600.0,600.0,555.0,4.0,4.0,4.0
2502,600.0,600.0,555.0,3.0,3.0,4.0
2503,600.0,600.0,555.0,4.0,4.0,4.0
2504,600.0,600.0,556.0,3.0,3.0,4.0
2505,600.0,600.0,555.0,4.0,4.0,4.0
2506,600.0,600.0,555.0,4.0,4.0,4.0
2507,600.0,599.0,555.0,4.0,4.0,4.0
2508,599.0,599.0,555.0,3.0,4.0,4.0
2509,599.0,599.0,555.0,4.0,4.0,4.0
2510,599.0,599.0,555.0,4.0,4.0,4.0
2511,599.0,599.0,555.0,4.0,3.0,3.0
2512,599.0,598.0,555.0,4.0,3.0,5.0
2513,598.0,598.0,555.0,3.0,4.0,4.0
2514,598.0,598.0,555.0,4.0,4.0,4.0
2515,598.0,597.0,554.0,4.0,4.0,4.0
2516,597.0,597.0,554.0,4.0,3.0,4.0
2517,597.0,597.0,554.0,4.0,3.0,4.0
2518,597.0,597.0,554.0,4.0,4.0,4.0
2519,597.0,597.0,554.0,4.0,4.0,4.0
2520,597.0,597.0,554.0,4.0,4.0,4.0
2521,597.0,598.0,554.0,3.0,5.0,4.0
2522,598.0,598.0,555.0,4.0,4.0,4.0
2523,598.0,598.0,554.0,4.0,4.0,4.0
2524,598.0,598.0,555.0,4.0,4.0,4.0
2525,598.0,598.0,554.0,4.0,4.0,4.0
2526,598.0,598.0,554.0,4.0,3.0,4.0
2527,598.0,598.0,554.0,4.0,4.0,4.0
2528,598.0,598.0,554.0,4.0,4.0,4.0
2529,598.0,598.0,554.0,4.0,3.0,4.0
2530,598.0,598.0,554.0,3.0,3.0,4.0
2531,598.0,598.0,555.0,4.0,4.0,4.0
2532,598.0,598.0,555.0,4.0,4.0,4.0
2533,598.0,598.0,554.0,4.0,4.0,4.0
2534,598.0,598.0,554.0,4.0,4.0,4.0
2535,598.0,597.0,554.0,4.0,4.0,4.0
2536,597.0,597.0,554.0,4.0,4.0,4.0
2537,597.0,597.0,554.0,4.0,4.0,4.0
2538,597.0,598.0,554.0,4.0,4.0,2.0
2539,598.0,597.0,553.0,4.0,4.0,3.0
2540,597.0,598.0,554.0,4.0,4.0,4.0
2541,598.0,598.0,554.0,3.0,4.0,4.0
2542,598.0,597.0,554.0,4.0,4.0,4.0
2543,597.0,597.0,554.0,4.0,4.0,4.0
2544,597.0,597.0,554.0,4.0,3.0,3.0
2545,597.0,596.0,554.0,4.0,4.0,4.0
2546,596.0,596.0,554.0,4.0,4.0,4.0
2547,596.0,596.0,553.0,4.0,4.0,5.0
2548,596.0,596.0,554.0,4.0,3.0,4.0
2549,596.0,596.0,554.0,4.0,4.0,4.0
2550,596.0,595.0,554.0,4.0,4.0,4.0
2551,595.0,595.0,554.0,4.0,4.0,4.0
2552,595.0,595.0,554.0,4.0,4.0,4.0
2553,595.0,595.0,554.0,4.0,4.0,4.0
2554,595.0,595.0,553.0,4.0,4.0,4.0
2555,595.0,595.0,553.0,4.0,4.0,4.0
2556,595.0,596.0,553.0,4.0,4.0,4.0
2557,596.0,596.0,554.0,4.0,4.0,4.0
2558,596.0,595.0,553.0,4.0,4.0,4.0
2559,595.0,596.0,553.0,4.0,4.0,4.0
2560,596.0,596.0,553.0,4.0,4.0,4.0
2561,596.0,595.0,553.0,4.0,4.0,4.0
2562,595.0,596.0,553.0,4.0,4.0,4.0
2563,596.0,597.0,554.0,4.0,4.0,4.0
2564,597.0,598.0,554.0,4.0,4.0,4.0
2565,598.0,598.0,555.0,4.0,4.0,4.0
2566,598.0,598.0,554.0,4.0,4.0,3.0
2567,598.0,599.0,554.0,4.0,4.0,4.0
2568,599.0,599.0,555.0,4.0,4.0,4.0
2569,599.0,599.0,554.0,4.0,4.0,4.0
2570,599.0,599.0,555.0,4.0,4.0,4.0
2571,599.0,599.0,555.0,4.0,4.0,4.0
2572,599.0,599.0,555.0,3.0,4.0,4.0
2573,599.0,599.0,554.0,4.0,4.0,4.0
2574,599.0,599.0,555.0,4.0,3.0,4.0
2575,599.0,599.0,554.0,4.0,4.0,4.0
2576,599.0,599.0,555.0,4.0,4.0,3.0
2577,599.0,599.0,554.0,4.0,4.0,4.0
2578,599.0,598.0,554.0,4.0,4.0,4.0
2579,598.0,598.0,554.0,4.0,4.0,3.0
2580,598.0,598.0,554.0,4.0,4.0,4.0
2581,598.0,598.0,554.0,4.0,4.0,4.0
2582,598.0,598.0,554.0,4.0,4.0,4.0
2583,598.0,598.0,554.0,4.0,4.0,4.0
2584,598.0,598.0,553.0,4.0,4.0,4.0
2585,598.0,598.0,553.0,4.0,4.0,3.0
2586,598.0,598.0,554.0,5.0,3.0,4.0
2587,598.0,598.0,554.0,3.0,4.0,4.0
2588,598.0,598.0,554.0,4.0,4.0,4.0
2589,598.0,597.0,554.0,4.0,4.0,3.0
2590,597.0,598.0,554.0,4.0,4.0,4.0
2591,598.0,598.0,554.0,5.0,4.0,4.0
2592,598.0,598.0,553.0,4.0,4.0,4.0
2593,598.0,598.0,554.0,4.0,4.0,4.0
2594,598.0,598.0,554.0,4.0,3.0,4.0
2595,598.0,598.0,554.0,4.0,4.0,4.0
2596,598.0,598.0,554.0,3.0,3.0,4.0
2597,598.0,598.0,554.0,4.0,4.0,4.0
2598,598.0,598.0,554.0,4.0,4.0,4.0
2599,598.0,598.0,555.0,4.0,4.0,4.0
2600,598.0,598.0,554.0,4.0,4.0,3.0
2601,598.0,597.0,554.0,4.0,4.0,4.0
2602,597.0,598.0,555.0,4.0,4.0,3.0
2603,598.0,598.0,555.0,3.0,4.0,4.0
2604,598.0,598.0,554.0,4.0,3.0,4.0
2605,598.0,598.0,554.0,4.0,4.0,4.0
2606,598.0,598.0,554.0,4.0,4.0,4.0
2607,598.0,597.0,554.0,4.0,4.0,4.0
2608,597.0,598.0,554.0,4.0,4.0,4.0
2609,598.0,598.0,554.0,4.0,4.0,4.0
2610,598.0,597.0,554.0,5.0,4.0,4.0
2611,597.0,598.0,554.0,4.0,4.0,4.0
2612,598.0,598.0,554.0,4.0,5.0,4.0
2613,598.0,598.0,553.0,4.0,4.0,4.0
2614,598.0,598.0,553.0,4.0,4.0,4.0
2615,598.0,598.0,554.0,4.0,4.0,4.0
2616,598.0,598.0,554.0,4.0,4.0,4.0
2617,598.0,598.0,554.0,3.0,3.0,4.0
2618,598.0,598.0,554.0,5.0,4.0,4.0
2619,598.0,598.0,554.0,4.0,4.0,4.0
2620,598.0,598.0,554.0,3.0,4.0,4.0
2621,598.0,598.0,554.0,4.0,4.0,4.0
2622,598.0,598.0,554.0,4.0,4.0,4.0
2623,598.0,597.0,554.0,4.0,4.0,4.0
2624,597.0,597.0,555.0,4.0,4.0,4.0
2625,597.0,596.0,555.0,3.0,4.0,4.0
2626,596.0,597.0,555.0,4.0,4.0,4.0
2627,597.0,597.0,554.0,4.0,3.0,4.0
2628,597.0,597.0,554.0,4.0,4.0,5.0
2629,597.0,596.0,554.0,4.0,4.0,4.0
2630,596.0,596.0,554.0,4.0,4.0,4.0
2631,596.0,596.0,554.0,4.0,4.0,4.0
2632,596.0,596.0,554.0,4.0,4.0,4.0
2633,596.0,596.0,555.0,4.0,3.0,4.0
2634,596.0,596.0,554.0,4.0,4.0,4.0
2635,596.0,596.0,554.0,4.0,4.0,4.0
2636,596.0,596.0,554.0,5.0,4.0,4.0
2637,596.0,596.0,554.0,4.0,4.0,4.0
2638,596.0,596.0,554.0,4.0,3.0,4.0
2639,596.0,597.0,554.0,4.0,4.0,4.0
2640,597.0,597.0,553.0,4.0,4.0,4.0
2641,597.0,597.0,554.0,4.0,4.0,5.0
2642,597.0,597.0,554.0,4.0,4.0,4.0
2643,597.0,597.0,553.0,4.0,4.0,4.0
2644,597.0,597.0,553.0,4.0,4.0,4.0
2645,597.0,597.0,553.0,4.0,4.0,3.0
2646,597.0,597.0,553.0,5.0,3.0,4.0
2647,597.0,597.0,553.0,4.0,4.0,4.0
2648,597.0,597.0,553.0,4.0,3.0,5.0
2649,597.0,596.0,554.0,3.0,3.0,4.0
2650,596.0,596.0,554.0,4.0,4.0,4.0
2651,596.0,596.0,554.0,4.0,4.0,3.0
2652,596.0,596.0,554.0,4.0,3.0,4.0
2653,596.0,595.0,554.0,5.0,4.0,4.0
2654,595.0,595.0,553.0,4.0,4.0,4.0
2655,595.0,595.0,553.0,4.0,4.0,4.0
2656,595.0,595.0,553.0,4.0,4.0,3.0
2657,595.0,595.0,553.0,4.0,4.0,4.0
2658,595.0,596.0,553.0,4.0,4.0,4.0
2659,596.0,595.0,553.0,4.0,4.0,4.0
2660,595.0,595.0,553.0,4.0,4.0,4.0
2661,595.0,596.0,554.0,4.0,3.0,4.0
2662,596.0,596.0,554.0,3.0,3.0,3.0
2663,596.0,596.0,553.0,3.0,4.0,3.0
2664,596.0,597.0,554.0,3.0,4.0,4.0
2665,597.0,597.0,554.0,3.0,4.0,4.0
2666,597.0,597.0,553.0,4.0,4.0,4.0
2667,597.0,597.0,554.0,4.0,4.0,4.0
2668,597.0,597.0,554.0,4.0,4.0,4.0
2669,597.0,597.0,554.0,4.0,4.0,4.0
2670,597.0,597.0,554.0,4.0,3.0,4.0
2671,597.0,598.0,554.0,4.0,4.0,4.0
2672,598.0,597.0,555.0,5.0,4.0,4.0
2673,597.0,597.0,554.0,4.0,3.0,4.0
2674,597.0,596.0,554.0,5.0,4.0,4.0
2675,596.0,596.0,554.0,4.0,4.0,4.0
2676,596.0,596.0,554.0,4.0,4.0,4.0
2677,596.0,596.0,554.0,4.0,4.0,5.0
2678,596.0,596.0,554.0,4.0,4.0,4.0
2679,596.0,596.0,555.0,4.0,4.0,4.0
2680,596.0,597.0,554.0,4.0,4.0,4.0
2681,597.0,596.0,554.0,4.0,4.0,3.0
2682,596.0,596.0,555.0,4.0,4.0,4.0
2683,596.0,596.0,555.0,4.0,4.0,4.0
2684,596.0,596.0,554.0,4.0,3.0,5.0
2685,596.0,596.0,555.0,4.0,4.0,4.0
2686,596.0,596.0,554.0,4.0,4.0,4.0
2687,596.0,596.0,555.0,5.0,4.0,4.0
2688,596.0,596.0,555.0,3.0,4.0,4.0
2689,596.0,596.0,555.0,4.0,4.0,4.0
2690,596.0,596.0,555.0,4.0,4.0,5.0
2691,596.0,596.0,555.0,4.0,4.0,4.0
2692,596.0,596.0,555.0,4.0,4.0,4.0
2693,596.0,596.0,555.0,4.0,4.0,4.0
2694,596.0,596.0,555.0,4.0,4.0,3.0
2695,596.0,596.0,554.0,3.0,4.0,4.0
2696,596.0,596.0,555.0,4.0,4.0,4.0
2697,596.0,596.0,555.0,4.0,4.0,3.0
2698,596.0,596.0,554.0,4.0,4.0,4.0
2699,596.0,596.0,554.0,4.0,4.0,4.0
2700,596.0,597.0,554.0,5.0,3.0,4.0
2701,597.0,597.0,555.0,4.0,4.0,4.0
2702,597.0,597.0,554.0,4.0,4.0,4.0
2703,597.0,597.0,554.0,4.0,4.0,4.0
2704,597.0,597.0,554.0,4.0,4.0,4.0
2705,597.0,597.0,554.0,3.0,4.0,3.0
2706,597.0,598.0,554.0,4.0,5.0,4.0
2707,598.0,598.0,554.0,4.0,4.0,4.0
2708,598.0,598.0,553.0,3.0,4.0,4.0
2709,598.0,598.0,554.0,4.0,4.0,4.0
2710,598.0,598.0,554.0,4.0,4.0,4.0
2711,598.0,597.0,553.0,4.0,4.0,4.0
2712,597.0,597.0,553.0,4.0,4.0,4.0
2713,597.0,597.0,553.0,5.0,4.0,3.0
2714,597.0,597.0,553.0,4.0,4.0,4.0
2715,597.0,598.0,553.0,4.0,4.0,4.0
2716,598.0,598.0,554.0,5.0,4.0,4.0
2717,598.0,598.0,553.0,4.0,4.0,4.0
2718,598.0,598.0,554.0,3.0,3.0,4.0
2719,598.0,598.0,554.0,4.0,5.0,4.0
2720,598.0,599.0,555.0,4.0,4.0,4.0
2721,599.0,598.0,554.0,4.0,3.0,4.0
2722,598.0,598.0,553.0,4.0,3.0,4.0
2723,598.0,598.0,554.0,4.0,4.0,4.0
2724,598.0,598.0,554.0,2.0,4.0,4.0
2725,598.0,598.0,554.0,4.0,4.0,4.0
2726,598.0,597.0,554.0,4.0,3.0,3.0
2727,597.0,597.0,555.0,4.0,3.0,4.0
2728,597.0,596.0,555.0,4.0,4.0,4.0
2729,596.0,596.0,555.0,4.0,3.0,4.0
2730,596.0,596.0,555.0,4.0,4.0,4.0
2731,596.0,595.0,554.0,4.0,4.0,4.0
2732,595.0,595.0,554.0,3.0,4.0,4.0
2733,595.0,595.0,555.0,4.0,4.0,4.0
2734,595.0,595.0,554.0,3.0,4.0,3.0
2735,595.0,595.0,554.0,4.0,4.0,4.0
2736,595.0,595.0,554.0,4.0,4.0,4.0
2737,595.0,595.0,555.0,4.0,4.0,4.0
2738,595.0,596.0,554.0,4.0,4.0,4.0
2739,596.0,596.0,554.0,4.0,4.0,4.0
2740,596.0,597.0,555.0,4.0,4.0,4.0
2741,597.0,597.0,555.0,4.0,4.0,4.0
2742,597.0,597.0,555.0,4.0,4.0,5.0
2743,597.0,597.0,555.0,4.0,4.0,4.0
2744,597.0,597.0,555.0,4.0,4.0,4.0
2745,597.0,597.0,554.0,4.0,4.0,4.0
2746,597.0,597.0,554.0,4.0,4.0,4.0
2747,597.0,597.0,554.0,4.0,4.0,4.0
2748,597.0,598.0,554.0,4.0,4.0,4.0
2749,598.0,598.0,554.0,4.0,4.0,4.0
2750,598.0,598.0,554.0,4.0,3.0,4.0
2751,598.0,598.0,554.0,4.0,4.0,4.0
2752,598.0,598.0,554.0,4.0,4.0,4.0
2753,598.0,598.0,554.0,4.0,4.0,4.0
2754,598.0,599.0,554.0,4.0,4.0,4.0
2755,599.0,599.0,554.0,4.0,4.0,4.0
2756,599.0,599.0,554.0,4.0,4.0,4.0
2757,599.0,599.0,555.0,3.0,4.0,4.0
2758,599.0,599.0,554.0,3.0,3.0,4.0
2759,599.0,599.0,554.0,4.0,4.0,5.0
2760,599.0,599.0,554.0,4.0,4.0,4.0
2761,599.0,599.0,555.0,4.0,4.0,4.0
2762,599.0,599.0,554.0,4.0,4.0,4.0
2763,599.0,599.0,554.0,4.0,4.0,4.0
2764,599.0,598.0,554.0,4.0,4.0,4.0
2765,598.0,598.0,554.0,3.0,2.0,4.0
2766,598.0,598.0,554.0,4.0,4.0,4.0
2767,598.0,598.0,554.0,4.0,3.0,4.0
2768,598.0,598.0,554.0,4.0,4.0,4.0
2769,598.0,598.0,554.0,4.0,4.0,4.0
2770,598.0,598.0,554.0,5.0,3.0,4.0
2771,598.0,598.0,554.0,3.0,4.0,4.0
2772,598.0,599.0,554.0,4.0,4.0,4.0
2773,599.0,598.0,554.0,5.0,4.0,4.0
2774,598.0,598.0,554.0,4.0,3.0,4.0
2775,598.0,598.0,554.0,5.0,4.0,4.0
2776,598.0,598.0,554.0,4.0,4.0,3.0
2777,598.0,598.0,554.0,4.0,4.0,4.0
2778,598.0,598.0,554.0,3.0,4.0,4.0
2779,598.0,597.0,553.0,4.0,4.0,4.0
2780,597.0,597.0,554.0,4.0,4.0,5.0
2781,597.0,598.0,554.0,4.0,3.0,4.0
2782,598.0,597.0,554.0,4.0,4.0,4.0
2783,597.0,597.0,554.0,4.0,4.0,3.0
2784,597.0,597.0,554.0,4.0,3.0,4.0
2785,597.0,597.0,554.0,4.0,3.0,4.0
2786,597.0,597.0,554.0,4.0,4.0,4.0
2787,597.0,596.0,554.0,4.0,4.0,4.0
2788,596.0,596.0,554.0,4.0,4.0,4.0
2789,596.0,596.0,554.0,4.0,3.0,4.0
2790,596.0,596.0,554.0,3.0,4.0,3.0
2791,596.0,595.0,555.0,5.0,4.0,4.0
2792,595.0,596.0,554.0,4.0,4.0,4.0
2793,596.0,596.0,554.0,4.0,4.0,4.0
2794,596.0,596.0,555.0,3.0,5.0,2.0
2795,596.0,596.0,554.0,4.0,4.0,4.0
2796,596.0,596.0,554.0,4.0,4.0,3.0
2797,596.0,596.0,554.0,5.0,4.0,3.0
2798,596.0,596.0,553.0,4.0,4.0,4.0
2799,596.0,596.0,553.0,4.0,3.0,4.0
2800,596.0,596.0,553.0,4.0,4.0,4.0
2801,596.0,596.0,553.0,4.0,4.0,4.0
2802,596.0,596.0,553.0,4.0,4.0,4.0
2803,596.0,596.0,554.0,3.0,4.0,4.0
2804,596.0,597.0,554.0,4.0,4.0,4.0
2805,597.0,597.0,554.0,4.0,4.0,4.0
2806,597.0,597.0,554.0,4.0,4.0,3.0
2807,597.0,597.0,554.0,4.0,4.0,4.0
2808,597.0,597.0,554.0,4.0,4.0,4.0
2809,597.0,597.0,554.0,3.0,4.0,5.0
2810,597.0,597.0,554.0,4.0,4.0,4.0
2811,597.0,597.0,554.0,4.0,4.0,4.0
2812,597.0,596.0,554.0,3.0,3.0,4.0
2813,596.0,596.0,554.0,4.0,4.0,4.0
2814,596.0,596.0,554.0,4.0,4.0,4.0
2815,596.0,596.0,554.0,4.0,4.0,4.0
2816,596.0,596.0,554.0,4.0,4.0,4.0
2817,596.0,597.0,554.0,4.0,4.0,4.0
2818,597.0,597.0,554.0,4.0,4.0,4.0
2819,597.0,598.0,554.0,4.0,4.0,4.0
2820,598.0,598.0,555.0,4.0,4.0,4.0
2821,598.0,598.0,555.0,4.0,4.0,4.0
2822,598.0,598.0,554.0,4.0,4.0,4.0
2823,598.0,598.0,555.0,4.0,4.0,4.0
2824,598.0,598.0,554.0,4.0,4.0,4.0
2825,598.0,598.0,554.0,3.0,3.0,3.0
2826,598.0,598.0,554.0,4.0,4.0,4.0
2827,598.0,598.0,554.0,4.0,3.0,4.0
2828,598.0,597.0,554.0,3.0,4.0,4.0
2829,597.0,597.0,554.0,4.0,3.0,4.0
2830,597.0,597.0,554.0,4.0,4.0,4.0
2831,597.0,597.0,554.0,4.0,4.0,5.0
2832,597.0,597.0,554.0,3.0,4.0,4.0
2833,597.0,597.0,553.0,4.0,4.0,4.0
2834,597.0,597.0,554.0,3.0,4.0,4.0
2835,597.0,597.0,553.0,4.0,4.0,4.0
2836,597.0,597.0,553.0,4.0,4.0,4.0
2837,597.0,597.0,554.0,4.0,4.0,4.0
2838,597.0,597.0,554.0,4.0,4.0,4.0
2839,597.0,597.0,554.0,4.0,4.0,4.0
2840,597.0,597.0,554.0,3.0,4.0,4.0
2841,597.0,598.0,555.0,4.0,3.0,4.0
2842,598.0,598.0,555.0,4.0,3.0,3.0
2843,598.0,598.0,555.0,4.0,4.0,3.0
2844,598.0,598.0,555.0,4.0,4.0,4.0
2845,598.0,598.0,555.0,4.0,4.0,3.0
2846,598.0,598.0,555.0,4.0,4.0,4.0
2847,598.0,598.0,555.0,4.0,4.0,4.0
2848,598.0,598.0,555.0,4.0,4.0,4.0
2849,598.0,598.0,555.0,4.0,4.0,4.0
2850,598.0,598.0,555.0,4.0,4.0,4.0
2851,598.0,598.0,555.0,4.0,4.0,4.0
2852,598.0,598.0,555.0,4.0,4.0,4.0
2853,598.0,598.0,555.0,4.0,4.0,4.0
2854,598.0,597.0,555.0,4.0,4.0,4.0
2855,597.0,597.0,554.0,4.0,4.0,4.0
2856,597.0,597.0,554.0,4.0,4.0,4.0
2857,597.0,597.0,554.0,4.0,4.0,4.0
2858,597.0,597.0,555.0,4.0,4.0,3.0
2859,597.0,596.0,555.0,4.0,4.0,4.0
2860,596.0,596.0,554.0,4.0,4.0,4.0
2861,596.0,597.0,555.0,4.0,3.0,4.0
2862,597.0,596.0,555.0,4.0,4.0,4.0
2863,596.0,596.0,554.0,4.0,3.0,4.0
2864,596.0,596.0,554.0,5.0,4.0,4.0
2865,596.0,595.0,554.0,4.0,4.0,4.0
2866,595.0,595.0,554.0,4.0,4.0,4.0
2867,595.0,596.0,554.0,4.0,4.0,4.0
2868,596.0,596.0,554.0,4.0,4.0,4.0
2869,596.0,596.0,554.0,5.0,4.0,4.0
2870,596.0,596.0,554.0,4.0,4.0,4.0
2871,596.0,597.0,555.0,4.0,4.0,4.0
2872,597.0,597.0,554.0,4.0,4.0,4.0
2873,597.0,597.0,554.0,4.0,4.0,4.0
2874,597.0,597.0,555.0,4.0,4.0,4.0
2875,597.0,597.0,555.0,4.0,4.0,4.0
2876,597.0,598.0,555.0,4.0,4.0,5.0
2877,598.0,597.0,555.0,4.0,5.0,4.0
2878,597.0,597.0,555.0,4.0,4.0,4.0
2879,597.0,597.0,554.0,4.0,4.0,4.0
2880,597.0,597.0,555.0,4.0,4.0,4.0
2881,597.0,597.0,555.0,4.0,4.0,4.0
2882,597.0,597.0,555.0,5.0,3.0,4.0
2883,597.0,597.0,554.0,4.0,4.0,4.0
2884,597.0,597.0,555.0,4.0,4.0,3.0
2885,597.0,597.0,554.0,4.0,4.0,4.0
2886,597.0,597.0,555.0,4.0,4.0,4.0
2887,597.0,596.0,555.0,3.0,4.0,4.0
2888,596.0,596.0,555.0,4.0,4.0,4.0
2889,596.0,596.0,554.0,4.0,4.0,4.0
2890,596.0,596.0,554.0,3.0,4.0,4.0
2891,596.0,595.0,554.0,4.0,4.0,4.0
2892,595.0,596.0,555.0,4.0,4.0,4.0
2893,596.0,596.0,554.0,4.0,4.0,4.0
2894,596.0,596.0,554.0,5.0,4.0,4.0
2895,596.0,595.0,554.0,4.0,3.0,4.0
2896,595.0,595.0,554.0,3.0,4.0,4.0
2897,595.0,595.0,554.0,4.0,3.0,4.0
2898,595.0,596.0,554.0,4.0,4.0,4.0
2899,596.0,595.0,554.0,3.0,3.0,3.0
2900,595.0,595.0,554.0,4.0,4.0,4.0
2901,595.0,596.0,554.0,4.0,3.0,4.0
2902,596.0,596.0,554.0,4.0,4.0,4.0
2903,596.0,596.0,554.0,4.0,4.0,4.0
2904,596.0,597.0,553.0,3.0,4.0,4.0
2905,597.0,596.0,554.0,3.0,4.0,3.0
2906,596.0,596.0,553.0,3.0,4.0,4.0
2907,596.0,596.0,554.0,4.0,4.0,4.0
2908,596.0,596.0,554.0,3.0,3.0,4.0
2909,596.0,596.0,554.0,4.0,4.0,4.0
2910,596.0,597.0,554.0,5.0,4.0,3.0
2911,597.0,597.0,554.0,4.0,4.0,4.0
2912,597.0,597.0,554.0,4.0,4.0,4.0
2913,597.0,597.0,554.0,4.0,4.0,4.0
2914,597.0,596.0,554.0,4.0,4.0,4.0
2915,596.0,596.0,553.0,3.0,5.0,3.0
2916,596.0,596.0,553.0,4.0,3.0,4.0
2917,596.0,597.0,553.0,4.0,4.0,4.0
2918,597.0,596.0,554.0,3.0,4.0,4.0
2919,596.0,596.0,554.0,4.0,4.0,4.0
2920,596.0,596.0,554.0,4.0,4.0,4.0
2921,596.0,596.0,553.0,4.0,4.0,4.0
2922,596.0,596.0,555.0,4.0,4.0,4.0
2923,596.0,597.0,555.0,4.0,3.0,4.0
2924,597.0,597.0,555.0,4.0,4.0,4.0
2925,597.0,597.0,554.0,3.0,3.0,4.0
2926,597.0,597.0,555.0,4.0,4.0,4.0
2927,597.0,596.0,555.0,4.0,4.0,4.0
2928,596.0,597.0,555.0,4.0,5.0,5.0
2929,597.0,596.0,555.0,4.0,3.0,4.0
2930,596.0,597.0,555.0,4.0,4.0,4.0
2931,597.0,596.0,556.0,4.0,5.0,3.0
2932,596.0,597.0,555.0,4.0,4.0,4.0
2933,597.0,596.0,555.0,4.0,4.0,4.0
2934,596.0,597.0,555.0,4.0,4.0,4.0
2935,597.0,597.0,555.0,4.0,4.0,4.0
2936,597.0,597.0,555.0,3.0,4.0,4.0
2937,597.0,597.0,555.0,4.0,4.0,4.0
2938,597.0,597.0,556.0,4.0,4.0,4.0
2939,597.0,597.0,556.0,4.0,3.0,3.0
2940,597.0,597.0,556.0,4.0,4.0,4.0
2941,597.0,597.0,556.0,4.0,3.0,5.0
2942,597.0,597.0,556.0,3.0,4.0,4.0
2943,597.0,596.0,556.0,4.0,4.0,4.0
2944,596.0,596.0,556.0,4.0,3.0,4.0
2945,596.0,597.0,556.0,4.0,4.0,4.0
2946,597.0,596.0,556.0,4.0,4.0,4.0
2947,596.0,597.0,555.0,3.0,4.0,4.0
2948,597.0,596.0,556.0,4.0,4.0,4.0
2949,596.0,596.0,555.0,4.0,4.0,4.0
2950,596.0,596.0,555.0,4.0,4.0,4.0
2951,596.0,596.0,555.0,4.0,4.0,3.0
2952,596.0,596.0,555.0,4.0,4.0,4.0
2953,596.0,596.0,555.0,4.0,4.0,4.0
2954,596.0,597.0,555.0,4.0,3.0,4.0
2955,597.0,596.0,555.0,4.0,4.0,4.0
2956,596.0,597.0,554.0,4.0,4.0,4.0
2957,597.0,597.0,554.0,4.0,4.0,4.0
2958,597.0,597.0,555.0,4.0,4.0,4.0
2959,597.0,598.0,555.0,4.0,3.0,4.0
2960,598.0,598.0,555.0,4.0,4.0,4.0
2961,598.0,598.0,555.0,3.0,3.0,4.0
2962,598.0,598.0,555.0,4.0,4.0,4.0
2963,598.0,598.0,555.0,4.0,4.0,4.0
2964,598.0,598.0,554.0,4.0,4.0,3.0
2965,598.0,598.0,555.0,4.0,4.0,4.0
2966,598.0,598.0,554.0,4.0,4.0,4.0
2967,598.0,598.0,554.0,4.0,4.0,4.0
2968,598.0,598.0,554.0,4.0,4.0,4.0
2969,598.0,598.0,555.0,4.0,4.0,4.0
2970,598.0,599.0,554.0,4.0,4.0,3.0
2971,599.0,598.0,554.0,4.0,4.0,4.0
2972,598.0,598.0,555.0,3.0,4.0,4.0
2973,598.0,598.0,554.0,4.0,4.0,4.0
2974,598.0,598.0,554.0,4.0,4.0,4.0
2975,598.0,598.0,554.0,4.0,4.0,3.0
2976,598.0,598.0,555.0,4.0,4.0,4.0
2977,598.0,598.0,555.0,4.0,4.0,4.0
2978,598.0,597.0,554.0,4.0,4.0,4.0
2979,597.0,597.0,554.0,4.0,4.0,4.0
2980,597.0,598.0,554.0,4.0,4.0,4.0
2981,598.0,597.0,554.0,4.0,4.0,4.0
2982,597.0,597.0,554.0,4.0,4.0,4.0
2983,597.0,597.0,554.0,5.0,3.0,4.0
2984,597.0,596.0,553.0,4.0,3.0,4.0
2985,596.0,596.0,554.0,5.0,4.0,5.0
2986,596.0,596.0,554.0,3.0,4.0,4.0
2987,596.0,596.0,554.0,5.0,4.0,4.0
2988,596.0,596.0,554.0,4.0,4.0,4.0
2989,596.0,597.0,554.0,4.0,4.0,4.0
2990,597.0,597.0,554.0,4.0,4.0,4.0
2991,597.0,597.0,554.0,4.0,3.0,3.0
2992,597.0,597.0,555.0,3.0,4.0,4.0
2993,597.0,597.0,555.0,4.0,4.0,4.0
2994,597.0,598.0,555.0,4.0,4.0,4.0
2995,598.0,597.0,555.0,4.0,4.0,4.0
2996,597.0,597.0,555.0,4.0,4.0,4.0
2997,597.0,597.0,555.0,4.0,4.0,4.0
2998,597.0,597.0,556.0,4.0,4.0,4.0
2999,597.0,597.0,556.0,4.0,4.0,4.0
3000,597.0,596.0,556.0,4.0,3.0,4.0
3001,596.0,596.0,556.0,4.0,4.0,4.0
3002,596.0,596.0,556.0,3.0,4.0,4.0
3003,596.0,596.0,556.0,4.0,4.0,5.0
3004,596.0,596.0,556.0,3.0,4.0,4.0
3005,596.0,596.0,556.0,3.0,4.0,4.0
3006,596.0,596.0,556.0,4.0,4.0,4.0
3007,596.0,596.0,556.0,4.0,3.0,4.0
3008,596.0,596.0,556.0,3.0,3.0,4.0
3009,596.0,596.0,555.0,4.0,4.0,4.0
3010,596.0,596.0,556.0,4.0,3.0,4.0
3011,596.0,596.0,556.0,4.0,4.0,4.0
3012,596.0,596.0,556.0,4.0,4.0,4.0
3013,596.0,596.0,556.0,4.0,4.0,4.0
3014,596.0,596.0,556.0,4.0,4.0,3.0
3015,596.0,596.0,556.0,4.0,4.0,4.0
3016,596.0,596.0,556.0,4.0,4.0,4.0
3017,596.0,597.0,556.0,4.0,4.0,4.0
3018,597.0,597.0,556.0,4.0,4.0,4.0
3019,597.0,597.0,555.0,4.0,4.0,4.0
3020,597.0,597.0,556.0,4.0,4.0,4.0
3021,597.0,597.0,555.0,4.0,4.0,4.0
3022,597.0,597.0,555.0,4.0,4.0,2.0
3023,597.0,597.0,555.0,3.0,4.0,4.0
3024,597.0,597.0,555.0,4.0,4.0,4.0
3025,597.0,597.0,555.0,4.0,4.0,4.0
3026,597.0,598.0,555.0,4.0,4.0,4.0
3027,598.0,598.0,555.0,4.0,3.0,5.0
3028,598.0,598.0,555.0,4.0,4.0,4.0
3029,598.0,598.0,555.0,3.0,4.0,4.0
3030,598.0,598.0,555.0,4.0,4.0,4.0
3031,598.0,598.0,555.0,3.0,4.0,4.0
3032,598.0,598.0,555.0,4.0,4.0,4.0
3033,598.0,598.0,555.0,4.0,4.0,4.0
3034,598.0,598.0,555.0,4.0,4.0,3.0
3035,598.0,597.0,554.0,3.0,4.0,4.0
3036,597.0,597.0,554.0,4.0,4.0,4.0
3037,597.0,596.0,554.0,3.0,4.0,4.0
3038,596.0,596.0,554.0,4.0,4.0,4.0
3039,596.0,596.0,554.0,4.0,4.0,4.0
3040,596.0,596.0,554.0,4.0,4.0,4.0
3041,596.0,595.0,553.0,4.0,4.0,4.0
3042,595.0,595.0,552.0,4.0,4.0,4.0
3043,595.0,594.0,552.0,3.0,3.0,4.0
3044,594.0,594.0,551.0,4.0,4.0,4.0
3045,594.0,594.0,552.0,4.0,4.0,3.0
3046,594.0,594.0,552.0,4.0,4.0,4.0
3047,594.0,593.0,552.0,4.0,4.0,3.0
3048,593.0,594.0,552.0,3.0,4.0,4.0
3049,594.0,594.0,552.0,4.0,4.0,4.0
3050,594.0,594.0,552.0,7.0,4.0,4.0
3051,594.0,594.0,552.0,3.0,4.0,4.0
3052,594.0,593.0,552.0,3.0,3.0,4.0
3053,593.0,594.0,552.0,3.0,4.0,4.0
3054,594.0,593.0,552.0,4.0,4.0,4.0
3055,593.0,594.0,552.0,4.0,4.0,4.0
3056,594.0,593.0,552.0,3.0,4.0,4.0
3057,593.0,594.0,552.0,4.0,4.0,4.0
3058,594.0,594.0,552.0,4.0,4.0,4.0
3059,594.0,594.0,552.0,4.0,4.0,4.0
3060,594.0,594.0,552.0,4.0,4.0,4.0
3061,594.0,595.0,552.0,4.0,4.0,4.0
3062,595.0,595.0,553.0,4.0,4.0,4.0
3063,595.0,596.0,552.0,5.0,4.0,3.0
3064,596.0,596.0,552.0,3.0,4.0,4.0
3065,596.0,597.0,553.0,4.0,4.0,4.0
3066,597.0,597.0,553.0,3.0,3.0,4.0
3067,597.0,598.0,553.0,4.0,4.0,4.0
3068,598.0,598.0,553.0,3.0,4.0,4.0
3069,598.0,599.0,553.0,4.0,4.0,4.0
3070,599.0,599.0,554.0,4.0,4.0,4.0
3071,599.0,599.0,554.0,4.0,3.0,4.0
3072,599.0,599.0,554.0,4.0,4.0,4.0
3073,599.0,600.0,554.0,4.0,3.0,4.0
3074,600.0,600.0,554.0,4.0,4.0,4.0
3075,600.0,600.0,554.0,4.0,4.0,4.0
3076,600.0,600.0,554.0,4.0,3.0,4.0
3077,600.0,600.0,555.0,4.0,4.0,4.0
3078,600.0,600.0,555.0,4.0,3.0,4.0
3079,600.0,601.0,555.0,4.0,3.0,4.0
3080,601.0,600.0,555.0,4.0,4.0,4.0
3081,600.0,600.0,555.0,4.0,3.0,2.0
3082,600.0,600.0,555.0,4.0,4.0,4.0
3083,600.0,600.0,555.0,4.0,4.0,4.0
3084,600.0,599.0,555.0,4.0,4.0,4.0
3085,599.0,599.0,556.0,3.0,4.0,4.0
3086,599.0,599.0,555.0,4.0,3.0,5.0
3087,599.0,598.0,556.0,4.0,4.0,4.0
3088,598.0,598.0,555.0,4.0,4.0,4.0
3089,598.0,598.0,555.0,3.0,4.0,4.0
3090,598.0,598.0,556.0,4.0,4.0,4.0
3091,598.0,598.0,555.0,4.0,3.0,3.0
3092,598.0,597.0,556.0,5.0,4.0,4.0
3093,597.0,597.0,556.0,4.0,4.0,4.0
3094,597.0,598.0,555.0,4.0,4.0,3.0
3095,598.0,598.0,555.0,4.0,4.0,4.0
3096,598.0,598.0,556.0,4.0,4.0,4.0
3097,598.0,597.0,555.0,4.0,4.0,4.0
3098,597.0,597.0,556.0,4.0,4.0,4.0
3099,597.0,597.0,556.0,3.0,4.0,4.0
3100,597.0,597.0,556.0,4.0,4.0,4.0
3101,597.0,597.0,556.0,4.0,4.0,4.0
3102,597.0,597.0,557.0,4.0,4.0,4.0
3103,597.0,597.0,556.0,3.0,4.0,4.0
3104,597.0,597.0,556.0,4.0,4.0,4.0
3105,597.0,597.0,557.0,4.0,4.0,4.0
3106,597.0,597.0,556.0,4.0,4.0,3.0
3107,597.0,597.0,556.0,3.0,4.0,4.0
3108,597.0,597.0,557.0,4.0,4.0,4.0
3109,597.0,597.0,557.0,3.0,4.0,4.0
3110,597.0,597.0,557.0,4.0,4.0,4.0
3111,597.0,596.0,557.0,4.0,4.0,4.0
3112,596.0,597.0,557.0,4.0,4.0,4.0
3113,597.0,597.0,557.0,4.0,4.0,4.0
3114,597.0,596.0,557.0,4.0,3.0,4.0
3115,596.0,596.0,557.0,4.0,3.0,4.0
3116,596.0,596.0,556.0,4.0,4.0,4.0
3117,596.0,596.0,556.0,4.0,4.0,4.0
3118,596.0,596.0,556.0,4.0,4.0,4.0
3119,596.0,596.0,556.0,4.0,4.0,4.0
3120,596.0,596.0,556.0,4.0,4.0,3.0
3121,596.0,596.0,555.0,4.0,4.0,4.0
3122,596.0,596.0,555.0,4.0,4.0,4.0
3123,596.0,597.0,556.0,4.0,4.0,4.0
3124,597.0,597.0,555.0,4.0,4.0,4.0
3125,597.0,597.0,555.0,4.0,3.0,4.0
3126,597.0,597.0,555.0,4.0,4.0,4.0
3127,597.0,597.0,555.0,4.0,4.0,4.0
3128,597.0,597.0,555.0,4.0,4.0,4.0
3129,597.0,597.0,555.0,4.0,4.0,4.0
3130,597.0,597.0,555.0,4.0,4.0,4.0
3131,597.0,598.0,555.0,4.0,4.0,3.0
3132,598.0,598.0,555.0,4.0,4.0,4.0
3133,598.0,598.0,554.0,4.0,4.0,4.0
3134,598.0,598.0,555.0,4.0,4.0,4.0
3135,598.0,598.0,555.0,4.0,4.0,4.0
3136,598.0,598.0,555.0,4.0,3.0,5.0
3137,598.0,598.0,555.0,4.0,4.0,4.0
3138,598.0,598.0,555.0,4.0,4.0,4.0
3139,598.0,598.0,555.0,4.0,4.0,4.0
3140,598.0,598.0,555.0,4.0,4.0,4.0
3141,598.0,598.0,555.0,4.0,4.0,4.0
3142,598.0,598.0,555.0,4.0,4.0,4.0
3143,598.0,598.0,555.0,4.0,3.0,3.0
3144,598.0,598.0,555.0,4.0,2.0,4.0
3145,598.0,598.0,555.0,4.0,4.0,4.0
3146,598.0,598.0,555.0,4.0,4.0,4.0
3147,598.0,598.0,554.0,4.0,4.0,4.0
3148,598.0,598.0,555.0,4.0,4.0,4.0
3149,598.0,598.0,554.0,4.0,4.0,4.0
3150,598.0,598.0,554.0,4.0,3.0,4.0
3151,598.0,598.0,554.0,4.0,4.0,4.0
3152,598.0,597.0,554.0,3.0,3.0,4.0
3153,597.0,597.0,554.0,3.0,4.0,4.0
3154,597.0,597.0,555.0,3.0,4.0,4.0
3155,597.0,597.0,555.0,3.0,4.0,4.0
3156,597.0,597.0,554.0,4.0,4.0,4.0
3157,597.0,597.0,554.0,5.0,3.0,4.0
3158,597.0,596.0,554.0,4.0,4.0,4.0
3159,596.0,596.0,554.0,4.0,3.0,4.0
3160,596.0,596.0,555.0,3.0,4.0,4.0
3161,596.0,596.0,554.0,5.0,4.0,4.0
3162,596.0,596.0,554.0,4.0,4.0,4.0
3163,596.0,596.0,554.0,4.0,4.0,4.0
3164,596.0,596.0,553.0,4.0,4.0,4.0
3165,596.0,596.0,554.0,4.0,3.0,4.0
3166,596.0,596.0,554.0,4.0,4.0,4.0
3167,596.0,595.0,553.0,4.0,4.0,4.0
3168,595.0,595.0,553.0,4.0,4.0,4.0
3169,595.0,595.0,553.0,4.0,4.0,4.0
3170,595.0,595.0,553.0,5.0,4.0,4.0
3171,595.0,595.0,554.0,4.0,3.0,4.0
3172,595.0,594.0,553.0,4.0,3.0,4.0
3173,594.0,594.0,553.0,4.0,4.0,4.0
3174,594.0,594.0,553.0,4.0,3.0,4.0
3175,594.0,594.0,553.0,4.0,4.0,4.0
3176,594.0,593.0,553.0,4.0,4.0,4.0
3177,593.0,593.0,553.0,4.0,4.0,4.0
3178,593.0,593.0,553.0,4.0,4.0,4.0
3179,593.0,594.0,553.0,5.0,4.0,3.0
3180,594.0,594.0,554.0,4.0,3.0,4.0
3181,594.0,594.0,553.0,4.0,4.0,4.0
3182,594.0,594.0,553.0,4.0,4.0,3.0
3183,594.0,594.0,553.0,4.0,4.0,4.0
3184,594.0,594.0,553.0,4.0,3.0,4.0
3185,594.0,593.0,553.0,4.0,3.0,4.0
3186,593.0,594.0,554.0,4.0,4.0,4.0
3187,594.0,594.0,554.0,4.0,4.0,4.0
3188,594.0,594.0,554.0,4.0,4.0,4.0
3189,594.0,594.0,554.0,4.0,4.0,4.0
3190,594.0,593.0,554.0,4.0,4.0,3.0
3191,593.0,594.0,554.0,4.0,4.0,4.0
3192,594.0,594.0,554.0,4.0,4.0,4.0
3193,594.0,594.0,554.0,4.0,3.0,4.0
3194,594.0,594.0,554.0,4.0,3.0,4.0
3195,594.0,594.0,554.0,4.0,4.0,1.0
3196,594.0,594.0,554.0,4.0,4.0,3.0
3197,594.0,595.0,555.0,4.0,4.0,4.0
3198,595.0,595.0,555.0,4.0,4.0,4.0
3199,595.0,595.0,555.0,4.0,4.0,4.0
3200,595.0,596.0,555.0,4.0,4.0,3.0
3201,596.0,596.0,555.0,3.0,4.0,4.0
3202,596.0,597.0,556.0,4.0,4.0,4.0
3203,597.0,597.0,556.0,4.0,4.0,4.0
3204,597.0,597.0,556.0,4.0,4.0,4.0
3205,597.0,597.0,556.0,3.0,4.0,4.0
3206,597.0,598.0,556.0,4.0,5.0,4.0
3207,598.0,598.0,556.0,4.0,4.0,4.0
3208,598.0,598.0,556.0,4.0,4.0,4.0
3209,598.0,598.0,556.0,5.0,4.0,5.0
3210,598.0,599.0,556.0,4.0,4.0,4.0
3211,599.0,599.0,555.0,4.0,4.0,4.0
3212,599.0,599.0,556.0,3.0,4.0,4.0
3213,599.0,599.0,556.0,3.0,3.0,4.0
3214,599.0,599.0,556.0,6.0,4.0,4.0
3215,599.0,599.0,555.0,3.0,4.0,3.0
3216,599.0,599.0,555.0,4.0,3.0,4.0
3217,599.0,599.0,555.0,4.0,4.0,4.0
3218,599.0,599.0,556.0,4.0,4.0,3.0
3219,599.0,599.0,555.0,4.0,4.0,4.0
3220,599.0,599.0,556.0,4.0,4.0,4.0
3221,599.0,599.0,555.0,4.0,4.0,4.0
3222,599.0,599.0,555.0,4.0,4.0,4.0
3223,599.0,599.0,555.0,4.0,4.0,3.0
3224,599.0,599.0,556.0,4.0,4.0,4.0
3225,599.0,599.0,555.0,4.0,4.0,4.0
3226,599.0,599.0,555.0,4.0,4.0,4.0
3227,599.0,599.0,555.0,4.0,4.0,4.0
3228,599.0,599.0,555.0,4.0,4.0,4.0
3229,599.0,599.0,554.0,4.0,4.0,4.0
3230,599.0,598.0,555.0,4.0,4.0,4.0
3231,598.0,598.0,555.0,4.0,4.0,4.0
3232,598.0,599.0,555.0,4.0,3.0,4.0
3233,599.0,598.0,555.0,4.0,3.0,4.0
3234,598.0,598.0,555.0,4.0,3.0,4.0
3235,598.0,598.0,555.0,4.0,4.0,4.0
3236,598.0,598.0,555.0,4.0,4.0,4.0
3237,598.0,598.0,555.0,3.0,3.0,4.0
3238,598.0,598.0,554.0,4.0,4.0,3.0
3239,598.0,598.0,554.0,3.0,4.0,4.0
3240,598.0,598.0,554.0,4.0,4.0,4.0
3241,598.0,598.0,554.0,4.0,3.0,4.0
3242,598.0,598.0,554.0,4.0,4.0,4.0
3243,598.0,597.0,554.0,3.0,4.0,4.0
3244,597.0,597.0,555.0,4.0,5.0,4.0
3245,597.0,597.0,554.0,3.0,4.0,4.0
3246,597.0,596.0,554.0,4.0,4.0,4.0
3247,596.0,596.0,554.0,3.0,4.0,4.0
3248,596.0,596.0,555.0,4.0,4.0,4.0
3249,596.0,596.0,555.0,3.0,3.0,4.0
3250,596.0,596.0,556.0,4.0,4.0,4.0
3251,596.0,596.0,555.0,3.0,4.0,4.0
3252,596.0,596.0,555.0,4.0,4.0,4.0
3253,596.0,596.0,556.0,4.0,4.0,4.0
3254,596.0,597.0,556.0,4.0,3.0,3.0
3255,597.0,597.0,556.0,4.0,4.0,4.0
3256,597.0,597.0,556.0,5.0,4.0,4.0
3257,597.0,597.0,556.0,4.0,3.0,4.0
3258,597.0,596.0,555.0,4.0,4.0,4.0
3259,596.0,597.0,555.0,4.0,4.0,4.0
3260,597.0,596.0,556.0,4.0,4.0,4.0
3261,596.0,597.0,555.0,4.0,4.0,4.0
3262,597.0,596.0,556.0,4.0,4.0,4.0
3263,596.0,596.0,556.0,4.0,5.0,4.0
3264,596.0,597.0,555.0,4.0,4.0,4.0
3265,597.0,597.0,555.0,4.0,4.0,3.0
3266,597.0,597.0,555.0,4.0,4.0,4.0
3267,597.0,597.0,555.0,4.0,4.0,4.0
3268,597.0,597.0,555.0,4.0,3.0,4.0
3269,597.0,598.0,555.0,4.0,4.0,4.0
3270,598.0,598.0,555.0,4.0,4.0,3.0
3271,598.0,597.0,555.0,5.0,4.0,4.0
3272,597.0,597.0,554.0,3.0,4.0,4.0
3273,597.0,596.0,554.0,4.0,4.0,4.0
3274,596.0,597.0,554.0,4.0,4.0,4.0
3275,597.0,597.0,553.0,4.0,4.0,4.0
3276,597.0,596.0,554.0,4.0,4.0,3.0
3277,596.0,597.0,554.0,4.0,4.0,4.0
3278,597.0,596.0,554.0,4.0,4.0,4.0
3279,596.0,596.0,554.0,4.0,4.0,3.0
3280,596.0,596.0,554.0,4.0,4.0,4.0
3281,596.0,597.0,554.0,4.0,4.0,4.0
3282,597.0,596.0,554.0,4.0,4.0,4.0
3283,596.0,596.0,554.0,3.0,4.0,3.0
3284,596.0,597.0,553.0,3.0,4.0,4.0
3285,597.0,596.0,553.0,4.0,4.0,4.0
3286,596.0,597.0,553.0,4.0,4.0,4.0
3287,597.0,596.0,553.0,4.0,4.0,4.0
3288,596.0,596.0,553.0,5.0,4.0,4.0
3289,596.0,597.0,553.0,4.0,4.0,4.0
3290,597.0,597.0,553.0,3.0,4.0,4.0
3291,597.0,596.0,553.0,4.0,4.0,4.0
3292,596.0,596.0,553.0,4.0,3.0,4.0
3293,596.0,596.0,553.0,4.0,4.0,4.0
3294,596.0,596.0,554.0,4.0,4.0,5.0
3295,596.0,596.0,554.0,4.0,4.0,4.0
3296,596.0,596.0,554.0,4.0,4.0,4.0
3297,596.0,596.0,554.0,4.0,4.0,4.0
3298,596.0,596.0,554.0,4.0,4.0,4.0
3299,596.0,597.0,554.0,4.0,4.0,4.0
3300,597.0,597.0,555.0,4.0,4.0,4.0
3301,597.0,597.0,555.0,4.0,4.0,4.0
3302,597.0,597.0,555.0,4.0,3.0,4.0
3303,597.0,598.0,554.0,4.0,4.0,4.0
3304,598.0,597.0,555.0,3.0,4.0,4.0
3305,597.0,597.0,555.0,4.0,4.0,4.0
3306,597.0,597.0,555.0,4.0,3.0,4.0
3307,597.0,597.0,555.0,3.0,3.0,4.0
3308,597.0,597.0,555.0,4.0,4.0,4.0
3309,597.0,597.0,555.0,4.0,4.0,4.0
3310,597.0,597.0,555.0,4.0,4.0,4.0
3311,597.0,598.0,556.0,4.0,4.0,4.0
3312,598.0,597.0,555.0,4.0,4.0,4.0
3313,597.0,598.0,556.0,4.0,4.0,4.0
3314,598.0,598.0,556.0,4.0,4.0,4.0
3315,598.0,597.0,556.0,4.0,3.0,4.0
3316,597.0,597.0,556.0,4.0,4.0,4.0
3317,597.0,597.0,557.0,4.0,4.0,4.0
3318,597.0,597.0,556.0,4.0,4.0,4.0
3319,597.0,598.0,556.0,4.0,4.0,4.0
3320,598.0,597.0,556.0,3.0,4.0,4.0
3321,597.0,597.0,556.0,4.0,4.0,4.0
3322,597.0,597.0,556.0,4.0,4.0,4.0
3323,597.0,597.0,556.0,3.0,4.0,4.0
3324,597.0,597.0,555.0,4.0,4.0,3.0
3325,597.0,597.0,555.0,4.0,4.0,4.0
3326,597.0,597.0,556.0,4.0,4.0,4.0
3327,597.0,597.0,556.0,4.0,4.0,4.0
3328,597.0,597.0,556.0,5.0,3.0,4.0
3329,597.0,597.0,556.0,4.0,3.0,4.0
3330,597.0,597.0,557.0,3.0,4.0,4.0
3331,597.0,597.0,556.0,4.0,4.0,4.0
3332,597.0,597.0,556.0,3.0,4.0,4.0
3333,597.0,596.0,556.0,4.0,4.0,4.0
3334,596.0,596.0,555.0,4.0,4.0,4.0
3335,596.0,596.0,555.0,4.0,4.0,4.0
3336,596.0,596.0,555.0,4.0,4.0,4.0
3337,596.0,596.0,555.0,3.0,4.0,3.0
3338,596.0,596.0,555.0,5.0,4.0,4.0
3339,596.0,596.0,555.0,4.0,3.0,4.0
3340,596.0,596.0,555.0,4.0,5.0,4.0
3341,596.0,596.0,555.0,4.0,4.0,4.0
3342,596.0,596.0,555.0,4.0,4.0,4.0
3343,596.0,596.0,554.0,3.0,4.0,4.0
3344,596.0,595.0,554.0,4.0,4.0,4.0
3345,595.0,595.0,555.0,4.0,4.0,4.0
3346,595.0,595.0,554.0,3.0,4.0,4.0
3347,595.0,595.0,554.0,4.0,4.0,4.0
3348,595.0,595.0,554.0,4.0,4.0,4.0
3349,595.0,595.0,553.0,4.0,4.0,4.0
3350,595.0,595.0,553.0,3.0,3.0,4.0
3351,595.0,595.0,553.0,3.0,4.0,5.0
3352,595.0,594.0,553.0,4.0,4.0,4.0
3353,594.0,594.0,554.0,4.0,4.0,3.0
3354,594.0,595.0,553.0,4.0,4.0,4.0
3355,595.0,595.0,553.0,4.0,4.0,4.0
3356,595.0,595.0,553.0,4.0,4.0,5.0
3357,595.0,595.0,553.0,4.0,4.0,4.0
3358,595.0,595.0,553.0,4.0,5.0,5.0
3359,595.0,595.0,553.0,4.0,4.0,3.0
3360,595.0,595.0,553.0,4.0,4.0,3.0
3361,595.0,596.0,553.0,4.0,4.0,4.0
3362,596.0,595.0,553.0,4.0,3.0,4.0
3363,595.0,596.0,552.0,4.0,4.0,4.0
3364,596.0,596.0,553.0,3.0,3.0,3.0
3365,596.0,597.0,553.0,3.0,4.0,4.0
3366,597.0,597.0,553.0,4.0,4.0,4.0
3367,597.0,598.0,553.0,4.0,4.0,4.0
3368,598.0,598.0,553.0,4.0,4.0,4.0
3369,598.0,598.0,553.0,3.0,4.0,4.0
3370,598.0,598.0,553.0,4.0,4.0,4.0
3371,598.0,598.0,553.0,3.0,4.0,4.0
3372,598.0,598.0,553.0,4.0,4.0,4.0
3373,598.0,598.0,554.0,4.0,4.0,3.0
3374,598.0,598.0,554.0,5.0,4.0,4.0
3375,598.0,599.0,554.0,4.0,4.0,5.0
3376,599.0,599.0,554.0,4.0,4.0,4.0
3377,599.0,599.0,554.0,4.0,4.0,4.0
3378,599.0,599.0,555.0,3.0,4.0,5.0
3379,599.0,599.0,554.0,4.0,4.0,4.0
3380,599.0,599.0,555.0,4.0,4.0,4.0
3381,599.0,600.0,555.0,3.0,4.0,4.0
3382,600.0,600.0,555.0,3.0,3.0,4.0
3383,600.0,600.0,556.0,4.0,4.0,4.0
3384,600.0,599.0,556.0,3.0,3.0,4.0
3385,599.0,600.0,556.0,4.0,4.0,4.0
3386,600.0,599.0,556.0,4.0,4.0,4.0
3387,599.0,599.0,556.0,4.0,4.0,4.0
3388,599.0,598.0,555.0,4.0,4.0,4.0
3389,598.0,598.0,556.0,4.0,4.0,4.0
3390,598.0,598.0,555.0,5.0,4.0,4.0
3391,598.0,598.0,555.0,4.0,4.0,4.0
3392,598.0,598.0,556.0,4.0,4.0,4.0
3393,598.0,597.0,556.0,4.0,4.0,4.0
3394,597.0,597.0,556.0,3.0,4.0,4.0
3395,597.0,597.0,556.0,4.0,4.0,4.0
3396,597.0,597.0,555.0,4.0,4.0,4.0
3397,597.0,596.0,555.0,3.0,2.0,4.0
3398,596.0,596.0,555.0,3.0,4.0,4.0
3399,596.0,596.0,554.0,4.0,4.0,4.0
3400,596.0,596.0,554.0,4.0,4.0,4.0
3401,596.0,595.0,554.0,4.0,4.0,4.0
3402,595.0,595.0,554.0,4.0,4.0,3.0
3403,595.0,595.0,554.0,4.0,3.0,4.0
3404,595.0,595.0,553.0,4.0,4.0,4.0
3405,595.0,595.0,554.0,4.0,4.0,4.0
3406,595.0,596.0,554.0,4.0,4.0,4.0
3407,596.0,596.0,553.0,3.0,5.0,4.0
3408,596.0,596.0,553.0,4.0,5.0,4.0
3409,596.0,597.0,553.0,4.0,4.0,4.0
3410,597.0,597.0,553.0,4.0,4.0,4.0
3411,597.0,597.0,553.0,5.0,4.0,4.0
3412,597.0,598.0,553.0,4.0,4.0,4.0
3413,598.0,598.0,553.0,4.0,4.0,4.0
3414,598.0,598.0,553.0,4.0,4.0,4.0
3415,598.0,598.0,553.0,3.0,4.0,4.0
3416,598.0,598.0,553.0,4.0,4.0,4.0
3417,598.0,599.0,553.0,4.0,4.0,4.0
3418,599.0,599.0,553.0,3.0,3.0,4.0
3419,599.0,599.0,553.0,3.0,4.0,4.0
3420,599.0,599.0,553.0,4.0,3.0,4.0
3421,599.0,600.0,552.0,4.0,4.0,4.0
3422,600.0,600.0,553.0,4.0,4.0,4.0
3423,600.0,600.0,553.0,4.0,4.0,4.0
3424,600.0,600.0,552.0,4.0,4.0,4.0
3425,600.0,600.0,553.0,4.0,4.0,4.0
3426,600.0,600.0,553.0,4.0,4.0,4.0
3427,600.0,599.0,553.0,4.0,4.0,4.0
3428,599.0,599.0,553.0,4.0,4.0,4.0
3429,599.0,599.0,553.0,3.0,5.0,4.0
3430,599.0,598.0,553.0,4.0,4.0,5.0
3431,598.0,598.0,553.0,4.0,4.0,4.0
3432,598.0,598.0,553.0,4.0,4.0,4.0
3433,598.0,598.0,554.0,4.0,4.0,4.0
3434,598.0,597.0,554.0,3.0,5.0,4.0
3435,597.0,597.0,554.0,4.0,4.0,4.0
3436,597.0,597.0,555.0,4.0,4.0,4.0
3437,597.0,597.0,555.0,4.0,4.0,4.0
3438,597.0,596.0,555.0,4.0,4.0,4.0
3439,596.0,595.0,555.0,4.0,3.0,4.0
3440,595.0,596.0,556.0,4.0,4.0,4.0
3441,596.0,595.0,555.0,3.0,4.0,4.0
3442,595.0,595.0,555.0,4.0,4.0,4.0
3443,595.0,595.0,555.0,4.0,4.0,3.0
3444,595.0,595.0,555.0,4.0,4.0,4.0
3445,595.0,596.0,556.0,4.0,4.0,4.0
3446,596.0,596.0,556.0,4.0,4.0,4.0
3447,596.0,596.0,556.0,4.0,4.0,4.0
3448,596.0,596.0,556.0,4.0,4.0,3.0
3449,596.0,596.0,556.0,5.0,3.0,4.0
3450,596.0,596.0,556.0,4.0,4.0,3.0
3451,596.0,596.0,556.0,3.0,3.0,4.0
