,x,y,z,muscle1,muscle2,muscle3
0,602.0,605.0,527.0,10.0,11.0,11.0
1,605.0,606.0,528.0,12.0,11.0,11.0
2,606.0,606.0,528.0,12.0,11.0,11.0
3,606.0,606.0,528.0,12.0,11.0,11.0
4,606.0,606.0,528.0,12.0,11.0,11.0
5,606.0,606.0,528.0,12.0,12.0,10.0
6,606.0,606.0,527.0,11.0,11.0,11.0
7,606.0,606.0,528.0,12.0,11.0,11.0
8,606.0,606.0,528.0,12.0,11.0,10.0
9,606.0,606.0,528.0,12.0,11.0,11.0
10,606.0,607.0,528.0,11.0,11.0,10.0
11,607.0,606.0,529.0,12.0,11.0,11.0
12,606.0,606.0,529.0,11.0,11.0,10.0
13,606.0,606.0,528.0,11.0,11.0,10.0
14,606.0,606.0,529.0,12.0,11.0,10.0
15,606.0,606.0,528.0,11.0,10.0,11.0
16,606.0,606.0,528.0,11.0,10.0,10.0
17,606.0,606.0,529.0,11.0,10.0,10.0
18,606.0,605.0,529.0,10.0,10.0,10.0
19,605.0,606.0,529.0,10.0,10.0,9.0
20,606.0,606.0,528.0,10.0,10.0,10.0
21,606.0,606.0,528.0,10.0,10.0,9.0
22,606.0,606.0,529.0,10.0,10.0,10.0
23,606.0,606.0,528.0,10.0,10.0,10.0
24,606.0,606.0,529.0,10.0,10.0,10.0
25,606.0,606.0,528.0,10.0,9.0,10.0
26,606.0,606.0,528.0,10.0,10.0,9.0
27,606.0,606.0,528.0,10.0,10.0,9.0
28,606.0,606.0,528.0,10.0,10.0,9.0
29,606.0,606.0,528.0,9.0,10.0,8.0
30,606.0,607.0,528.0,10.0,10.0,9.0
31,607.0,607.0,527.0,10.0,9.0,9.0
32,607.0,607.0,528.0,10.0,9.0,9.0
33,607.0,607.0,528.0,10.0,9.0,9.0
34,607.0,607.0,528.0,10.0,10.0,9.0
35,607.0,607.0,528.0,10.0,9.0,8.0
36,607.0,607.0,527.0,10.0,9.0,9.0
37,607.0,607.0,528.0,10.0,9.0,9.0
38,607.0,607.0,528.0,10.0,9.0,9.0
39,607.0,607.0,528.0,10.0,9.0,9.0
40,607.0,607.0,528.0,9.0,9.0,9.0
41,607.0,606.0,528.0,10.0,8.0,9.0
42,606.0,607.0,528.0,9.0,8.0,8.0
43,607.0,606.0,528.0,9.0,9.0,9.0
44,606.0,607.0,528.0,9.0,8.0,8.0
45,607.0,606.0,528.0,9.0,9.0,8.0
46,606.0,607.0,528.0,8.0,9.0,8.0
47,607.0,606.0,529.0,9.0,9.0,8.0
48,606.0,606.0,529.0,8.0,8.0,8.0
49,606.0,606.0,528.0,9.0,8.0,8.0
50,606.0,606.0,528.0,9.0,8.0,8.0
51,606.0,606.0,528.0,9.0,7.0,9.0
52,606.0,606.0,529.0,9.0,8.0,9.0
53,606.0,606.0,528.0,8.0,9.0,8.0
54,606.0,606.0,530.0,8.0,8.0,7.0
55,606.0,606.0,529.0,9.0,8.0,9.0
56,606.0,605.0,529.0,8.0,8.0,7.0
57,605.0,605.0,529.0,9.0,7.0,8.0
58,605.0,605.0,528.0,9.0,8.0,8.0
59,605.0,606.0,529.0,8.0,8.0,7.0
60,606.0,606.0,529.0,8.0,7.0,8.0
61,606.0,606.0,529.0,9.0,8.0,7.0
62,606.0,606.0,529.0,7.0,7.0,7.0
63,606.0,606.0,529.0,8.0,7.0,7.0
64,606.0,606.0,529.0,9.0,7.0,7.0
65,606.0,606.0,528.0,8.0,8.0,7.0
66,606.0,606.0,528.0,8.0,8.0,7.0
67,606.0,606.0,528.0,8.0,8.0,7.0
68,606.0,606.0,527.0,8.0,7.0,7.0
69,606.0,606.0,528.0,7.0,7.0,8.0
70,606.0,606.0,528.0,8.0,7.0,7.0
71,606.0,606.0,528.0,7.0,7.0,7.0
72,606.0,606.0,528.0,8.0,7.0,7.0
73,606.0,606.0,528.0,7.0,7.0,7.0
74,606.0,606.0,529.0,7.0,7.0,6.0
75,606.0,606.0,528.0,7.0,7.0,7.0
76,606.0,606.0,528.0,7.0,7.0,7.0
77,606.0,606.0,528.0,7.0,7.0,7.0
78,606.0,606.0,528.0,7.0,7.0,7.0
79,606.0,606.0,528.0,7.0,7.0,7.0
80,606.0,606.0,528.0,7.0,7.0,7.0
81,606.0,607.0,528.0,7.0,7.0,7.0
82,607.0,607.0,527.0,7.0,6.0,6.0
83,607.0,607.0,528.0,7.0,7.0,7.0
84,607.0,607.0,527.0,7.0,7.0,7.0
85,607.0,606.0,527.0,7.0,7.0,7.0
86,606.0,607.0,527.0,7.0,7.0,7.0
87,607.0,606.0,527.0,7.0,7.0,6.0
88,606.0,607.0,527.0,7.0,7.0,7.0
89,607.0,606.0,527.0,7.0,7.0,7.0
90,606.0,607.0,527.0,7.0,6.0,6.0
91,607.0,607.0,527.0,7.0,7.0,7.0
92,607.0,607.0,527.0,7.0,7.0,7.0
93,607.0,606.0,528.0,7.0,6.0,6.0
94,606.0,606.0,528.0,7.0,7.0,6.0
95,606.0,606.0,528.0,7.0,6.0,6.0
96,606.0,606.0,528.0,6.0,6.0,6.0
97,606.0,606.0,528.0,7.0,7.0,7.0
98,606.0,606.0,528.0,7.0,6.0,6.0
99,606.0,606.0,528.0,7.0,7.0,6.0
100,606.0,606.0,528.0,7.0,7.0,6.0
101,606.0,607.0,528.0,6.0,7.0,6.0
102,607.0,607.0,528.0,6.0,6.0,6.0
103,607.0,606.0,528.0,7.0,6.0,6.0
104,606.0,606.0,529.0,7.0,7.0,7.0
105,606.0,606.0,528.0,6.0,6.0,6.0
106,606.0,606.0,528.0,7.0,6.0,6.0
107,606.0,605.0,528.0,7.0,6.0,6.0
108,605.0,605.0,520.0,528.0,4.0,4.0
109,606.0,606.0,528.0,4.0,4.0,4.0
110,606.0,607.0,529.0,4.0,4.0,4.0
111,607.0,607.0,528.0,4.0,4.0,4.0
112,607.0,606.0,528.0,4.0,4.0,4.0
113,606.0,606.0,528.0,4.0,4.0,4.0
114,606.0,606.0,528.0,4.0,4.0,4.0
115,606.0,606.0,528.0,4.0,4.0,4.0
116,606.0,606.0,528.0,4.0,4.0,5.0
117,606.0,606.0,528.0,4.0,4.0,4.0
118,606.0,607.0,528.0,4.0,4.0,4.0
119,607.0,606.0,528.0,3.0,4.0,4.0
120,606.0,606.0,528.0,4.0,4.0,4.0
121,606.0,607.0,528.0,4.0,4.0,4.0
122,607.0,607.0,528.0,4.0,4.0,4.0
123,607.0,607.0,527.0,3.0,4.0,3.0
124,607.0,606.0,528.0,4.0,5.0,4.0
125,606.0,606.0,528.0,4.0,5.0,4.0
126,606.0,606.0,528.0,4.0,4.0,4.0
127,606.0,606.0,528.0,4.0,4.0,4.0
128,606.0,607.0,527.0,4.0,4.0,4.0
129,607.0,606.0,528.0,4.0,4.0,4.0
130,606.0,606.0,528.0,4.0,4.0,4.0
131,606.0,606.0,528.0,4.0,4.0,5.0
132,606.0,607.0,528.0,3.0,4.0,4.0
133,607.0,607.0,528.0,4.0,4.0,4.0
134,607.0,606.0,528.0,4.0,4.0,4.0
135,606.0,606.0,529.0,4.0,4.0,4.0
136,606.0,607.0,528.0,4.0,4.0,4.0
137,607.0,606.0,528.0,4.0,4.0,4.0
138,606.0,606.0,528.0,4.0,4.0,4.0
139,606.0,607.0,528.0,4.0,4.0,4.0
140,607.0,606.0,528.0,4.0,4.0,4.0
141,606.0,606.0,528.0,4.0,4.0,4.0
142,606.0,606.0,528.0,4.0,5.0,3.0
143,606.0,607.0,528.0,4.0,3.0,4.0
144,607.0,606.0,528.0,4.0,4.0,4.0
145,606.0,606.0,528.0,4.0,4.0,4.0
146,606.0,607.0,527.0,4.0,4.0,4.0
147,607.0,607.0,528.0,4.0,4.0,4.0
148,607.0,607.0,529.0,5.0,4.0,4.0
149,607.0,607.0,528.0,4.0,4.0,4.0
150,607.0,606.0,528.0,4.0,4.0,5.0
151,606.0,606.0,528.0,4.0,4.0,4.0
152,606.0,606.0,528.0,4.0,4.0,4.0
153,606.0,606.0,528.0,4.0,4.0,4.0
154,606.0,606.0,528.0,4.0,4.0,4.0
155,606.0,607.0,528.0,3.0,3.0,3.0
156,607.0,607.0,528.0,4.0,4.0,4.0
157,607.0,606.0,528.0,3.0,4.0,3.0
158,606.0,606.0,528.0,4.0,4.0,4.0
159,606.0,607.0,528.0,4.0,5.0,5.0
160,607.0,606.0,528.0,4.0,4.0,3.0
161,606.0,607.0,528.0,4.0,4.0,4.0
162,607.0,606.0,528.0,4.0,3.0,4.0
163,606.0,606.0,529.0,5.0,4.0,4.0
164,606.0,606.0,528.0,4.0,4.0,4.0
165,606.0,606.0,528.0,3.0,4.0,4.0
166,606.0,606.0,528.0,4.0,4.0,4.0
167,606.0,606.0,529.0,4.0,4.0,4.0
168,606.0,606.0,528.0,4.0,3.0,4.0
169,606.0,606.0,528.0,4.0,4.0,4.0
170,606.0,606.0,528.0,4.0,4.0,4.0
171,606.0,606.0,528.0,4.0,4.0,4.0
172,606.0,606.0,528.0,4.0,4.0,3.0
173,606.0,606.0,528.0,4.0,4.0,4.0
174,606.0,606.0,528.0,4.0,4.0,4.0
175,606.0,606.0,529.0,5.0,4.0,4.0
176,606.0,606.0,528.0,4.0,4.0,4.0
177,606.0,606.0,528.0,4.0,4.0,4.0
178,606.0,606.0,528.0,4.0,4.0,4.0
179,606.0,606.0,528.0,4.0,4.0,4.0
180,606.0,607.0,528.0,4.0,4.0,4.0
181,607.0,606.0,528.0,4.0,4.0,4.0
182,606.0,606.0,528.0,4.0,4.0,4.0
183,606.0,606.0,528.0,4.0,4.0,4.0
184,606.0,606.0,528.0,4.0,4.0,4.0
185,606.0,606.0,528.0,4.0,3.0,4.0
186,606.0,606.0,528.0,4.0,4.0,4.0
187,606.0,606.0,528.0,4.0,4.0,4.0
188,606.0,607.0,528.0,4.0,4.0,4.0
189,607.0,606.0,528.0,4.0,4.0,4.0
190,606.0,606.0,527.0,4.0,4.0,4.0
191,606.0,607.0,527.0,3.0,4.0,4.0
192,607.0,606.0,528.0,5.0,3.0,4.0
193,606.0,607.0,528.0,4.0,4.0,4.0
194,607.0,607.0,529.0,4.0,4.0,4.0
195,607.0,606.0,529.0,4.0,4.0,4.0
196,606.0,606.0,528.0,4.0,4.0,4.0
197,606.0,606.0,528.0,4.0,4.0,4.0
198,606.0,606.0,528.0,4.0,4.0,4.0
199,606.0,606.0,529.0,4.0,3.0,4.0
200,606.0,606.0,528.0,4.0,4.0,4.0
201,606.0,606.0,528.0,4.0,4.0,4.0
202,606.0,606.0,528.0,4.0,4.0,4.0
203,606.0,606.0,529.0,4.0,4.0,4.0
204,606.0,606.0,529.0,4.0,4.0,4.0
205,606.0,606.0,528.0,4.0,4.0,4.0
206,606.0,606.0,528.0,3.0,3.0,4.0
207,606.0,606.0,528.0,4.0,4.0,4.0
208,606.0,606.0,529.0,4.0,4.0,4.0
209,606.0,606.0,528.0,4.0,4.0,4.0
210,606.0,606.0,528.0,4.0,3.0,4.0
211,606.0,606.0,528.0,4.0,3.0,4.0
212,606.0,606.0,528.0,3.0,4.0,4.0
213,606.0,606.0,528.0,4.0,4.0,4.0
214,606.0,606.0,528.0,4.0,5.0,3.0
215,606.0,606.0,528.0,4.0,4.0,4.0
216,606.0,606.0,528.0,4.0,4.0,4.0
217,606.0,607.0,528.0,4.0,4.0,4.0
218,607.0,606.0,528.0,4.0,4.0,4.0
219,606.0,607.0,527.0,3.0,4.0,4.0
220,607.0,606.0,527.0,4.0,4.0,4.0
221,606.0,606.0,527.0,3.0,4.0,4.0
222,606.0,606.0,528.0,4.0,4.0,4.0
223,606.0,606.0,528.0,4.0,4.0,4.0
224,606.0,606.0,528.0,4.0,4.0,5.0
225,606.0,606.0,528.0,4.0,4.0,4.0
226,606.0,606.0,528.0,4.0,4.0,4.0
227,606.0,606.0,528.0,4.0,4.0,4.0
228,606.0,607.0,528.0,3.0,4.0,4.0
229,607.0,607.0,528.0,4.0,4.0,4.0
230,607.0,607.0,528.0,4.0,4.0,4.0
231,607.0,607.0,528.0,4.0,4.0,4.0
232,607.0,607.0,528.0,4.0,4.0,4.0
233,607.0,606.0,528.0,4.0,4.0,4.0
234,606.0,606.0,528.0,4.0,4.0,2.0
235,606.0,606.0,528.0,3.0,4.0,4.0
236,606.0,606.0,528.0,4.0,4.0,4.0
237,606.0,606.0,528.0,4.0,3.0,4.0
238,606.0,606.0,528.0,5.0,4.0,4.0
239,606.0,606.0,528.0,4.0,4.0,4.0
240,606.0,606.0,528.0,3.0,4.0,3.0
241,606.0,606.0,529.0,4.0,4.0,4.0
242,606.0,606.0,528.0,4.0,4.0,4.0
243,606.0,606.0,529.0,4.0,3.0,4.0
244,606.0,606.0,528.0,4.0,4.0,4.0
245,606.0,606.0,528.0,4.0,4.0,4.0
246,606.0,606.0,528.0,4.0,3.0,4.0
247,606.0,607.0,528.0,4.0,4.0,4.0
248,607.0,606.0,529.0,4.0,4.0,4.0
249,606.0,606.0,528.0,4.0,4.0,4.0
250,606.0,607.0,528.0,4.0,4.0,4.0
251,607.0,606.0,529.0,4.0,4.0,4.0
252,606.0,606.0,528.0,4.0,4.0,4.0
253,606.0,606.0,528.0,4.0,4.0,4.0
254,606.0,606.0,528.0,4.0,4.0,4.0
255,606.0,606.0,528.0,4.0,3.0,3.0
256,606.0,607.0,528.0,4.0,4.0,4.0
257,607.0,606.0,528.0,4.0,4.0,4.0
258,606.0,606.0,528.0,4.0,3.0,4.0
259,606.0,606.0,529.0,4.0,4.0,4.0
260,606.0,606.0,528.0,4.0,4.0,4.0
261,606.0,606.0,528.0,4.0,4.0,5.0
262,606.0,606.0,528.0,4.0,4.0,4.0
263,606.0,606.0,528.0,4.0,4.0,4.0
264,606.0,606.0,528.0,4.0,4.0,4.0
265,606.0,606.0,528.0,4.0,4.0,4.0
266,606.0,606.0,528.0,3.0,4.0,4.0
267,606.0,606.0,528.0,4.0,4.0,4.0
268,606.0,606.0,528.0,4.0,4.0,4.0
269,606.0,607.0,528.0,4.0,3.0,5.0
270,607.0,607.0,528.0,4.0,4.0,4.0
271,607.0,606.0,528.0,5.0,4.0,4.0
272,606.0,606.0,528.0,4.0,4.0,4.0
273,606.0,606.0,528.0,4.0,4.0,4.0
274,606.0,607.0,528.0,4.0,4.0,4.0
275,607.0,606.0,528.0,4.0,4.0,4.0
276,606.0,606.0,528.0,4.0,4.0,4.0
277,606.0,606.0,528.0,4.0,4.0,4.0
278,606.0,606.0,528.0,4.0,4.0,4.0
279,606.0,606.0,528.0,4.0,4.0,4.0
280,606.0,606.0,529.0,4.0,4.0,4.0
281,606.0,606.0,528.0,4.0,4.0,4.0
282,606.0,606.0,528.0,4.0,4.0,4.0
283,606.0,606.0,528.0,4.0,4.0,4.0
284,606.0,606.0,528.0,5.0,4.0,4.0
285,606.0,606.0,527.0,4.0,4.0,4.0
286,606.0,606.0,528.0,4.0,3.0,4.0
287,606.0,607.0,528.0,3.0,5.0,4.0
288,607.0,607.0,528.0,4.0,4.0,4.0
289,607.0,606.0,528.0,4.0,4.0,3.0
290,606.0,606.0,528.0,3.0,4.0,4.0
291,606.0,606.0,528.0,4.0,4.0,4.0
292,606.0,606.0,528.0,4.0,3.0,3.0
293,606.0,607.0,528.0,4.0,4.0,4.0
294,607.0,606.0,528.0,3.0,4.0,4.0
295,606.0,606.0,528.0,4.0,4.0,4.0
296,606.0,607.0,528.0,4.0,4.0,4.0
297,607.0,607.0,528.0,4.0,4.0,4.0
298,607.0,607.0,529.0,4.0,4.0,4.0
299,607.0,606.0,528.0,4.0,4.0,4.0
300,606.0,606.0,528.0,4.0,4.0,4.0
301,606.0,606.0,528.0,4.0,4.0,4.0
302,606.0,606.0,528.0,4.0,4.0,4.0
303,606.0,606.0,528.0,4.0,4.0,4.0
304,606.0,606.0,528.0,4.0,4.0,4.0
305,606.0,606.0,528.0,4.0,4.0,4.0
306,606.0,606.0,528.0,4.0,4.0,4.0
307,606.0,607.0,528.0,4.0,4.0,4.0
308,607.0,606.0,528.0,3.0,4.0,4.0
309,606.0,606.0,528.0,4.0,4.0,4.0
310,606.0,607.0,528.0,4.0,3.0,4.0
311,607.0,606.0,527.0,4.0,4.0,4.0
312,606.0,606.0,528.0,3.0,4.0,4.0
313,606.0,606.0,528.0,4.0,4.0,5.0
314,606.0,606.0,529.0,3.0,4.0,4.0
315,606.0,606.0,528.0,4.0,4.0,4.0
316,606.0,606.0,528.0,4.0,4.0,4.0
317,606.0,606.0,528.0,4.0,4.0,4.0
318,606.0,606.0,528.0,4.0,4.0,4.0
319,606.0,606.0,528.0,4.0,4.0,4.0
320,606.0,606.0,528.0,3.0,4.0,3.0
321,606.0,606.0,528.0,4.0,4.0,4.0
322,606.0,606.0,528.0,4.0,4.0,4.0
323,606.0,606.0,528.0,4.0,4.0,4.0
324,606.0,606.0,529.0,4.0,4.0,4.0
325,606.0,606.0,528.0,4.0,4.0,4.0
326,606.0,606.0,528.0,5.0,3.0,3.0
327,606.0,606.0,529.0,4.0,4.0,4.0
328,606.0,607.0,528.0,4.0,4.0,5.0
329,607.0,602.0,528.0,4.0,4.0,4.0
330,602.0,606.0,531.0,4.0,4.0,4.0
331,606.0,612.0,526.0,4.0,4.0,4.0
332,612.0,609.0,526.0,4.0,4.0,4.0
333,609.0,608.0,530.0,4.0,4.0,4.0
334,608.0,605.0,530.0,4.0,4.0,4.0
335,605.0,604.0,528.0,4.0,4.0,3.0
336,604.0,605.0,526.0,3.0,4.0,4.0
337,605.0,606.0,527.0,4.0,4.0,4.0
338,606.0,607.0,528.0,3.0,4.0,4.0
339,607.0,607.0,529.0,4.0,4.0,4.0
340,607.0,606.0,529.0,4.0,4.0,4.0
341,606.0,606.0,528.0,4.0,3.0,5.0
342,606.0,606.0,528.0,4.0,4.0,4.0
343,606.0,606.0,529.0,4.0,4.0,4.0
344,606.0,606.0,528.0,4.0,4.0,4.0
345,606.0,606.0,529.0,4.0,4.0,4.0
346,606.0,606.0,528.0,5.0,4.0,4.0
347,606.0,606.0,528.0,4.0,5.0,4.0
348,606.0,606.0,528.0,3.0,4.0,4.0
349,606.0,607.0,529.0,3.0,4.0,4.0
350,607.0,606.0,528.0,4.0,4.0,4.0
351,606.0,606.0,528.0,4.0,4.0,4.0
352,606.0,606.0,528.0,4.0,3.0,4.0
353,606.0,606.0,528.0,4.0,4.0,4.0
354,606.0,606.0,528.0,4.0,4.0,4.0
355,606.0,606.0,528.0,4.0,3.0,4.0
356,606.0,606.0,528.0,4.0,4.0,4.0
357,606.0,606.0,527.0,4.0,3.0,4.0
358,606.0,606.0,527.0,4.0,4.0,4.0
359,606.0,606.0,528.0,3.0,4.0,4.0
360,606.0,607.0,528.0,4.0,4.0,4.0
361,607.0,607.0,528.0,4.0,4.0,4.0
362,607.0,607.0,528.0,4.0,3.0,4.0
363,607.0,606.0,528.0,4.0,4.0,4.0
364,606.0,606.0,528.0,3.0,3.0,4.0
365,606.0,606.0,528.0,4.0,4.0,4.0
366,606.0,606.0,528.0,4.0,4.0,4.0
367,606.0,606.0,529.0,4.0,4.0,4.0
368,606.0,606.0,529.0,4.0,4.0,4.0
369,606.0,606.0,528.0,3.0,3.0,4.0
370,606.0,606.0,529.0,5.0,4.0,4.0
371,606.0,606.0,528.0,4.0,4.0,4.0
372,606.0,606.0,529.0,3.0,3.0,4.0
373,606.0,606.0,529.0,4.0,4.0,4.0
374,606.0,607.0,528.0,4.0,5.0,3.0
375,607.0,606.0,528.0,4.0,4.0,4.0
376,606.0,606.0,528.0,4.0,4.0,4.0
377,606.0,606.0,528.0,4.0,4.0,3.0
378,606.0,606.0,528.0,3.0,4.0,4.0
379,606.0,606.0,528.0,4.0,4.0,4.0
380,606.0,606.0,528.0,4.0,4.0,4.0
381,606.0,606.0,528.0,4.0,4.0,4.0
382,606.0,606.0,528.0,4.0,4.0,3.0
383,606.0,606.0,528.0,4.0,5.0,4.0
384,606.0,606.0,527.0,4.0,4.0,4.0
385,606.0,606.0,528.0,3.0,5.0,4.0
386,606.0,607.0,528.0,4.0,4.0,4.0
387,607.0,606.0,528.0,3.0,4.0,4.0
388,606.0,607.0,528.0,4.0,4.0,4.0
389,607.0,606.0,528.0,4.0,4.0,4.0
390,606.0,607.0,528.0,4.0,4.0,4.0
391,607.0,607.0,528.0,4.0,4.0,4.0
392,607.0,606.0,528.0,4.0,4.0,3.0
393,606.0,607.0,528.0,4.0,4.0,4.0
394,607.0,606.0,528.0,4.0,4.0,4.0
395,606.0,607.0,528.0,4.0,4.0,4.0
396,607.0,606.0,528.0,5.0,4.0,4.0
397,606.0,607.0,528.0,4.0,4.0,4.0
398,607.0,607.0,528.0,4.0,3.0,4.0
399,607.0,607.0,528.0,4.0,4.0,4.0
400,607.0,606.0,527.0,4.0,4.0,4.0
401,606.0,607.0,528.0,4.0,3.0,4.0
402,607.0,607.0,527.0,4.0,4.0,4.0
403,607.0,607.0,527.0,4.0,4.0,4.0
404,607.0,606.0,527.0,4.0,4.0,4.0
405,606.0,606.0,528.0,4.0,4.0,3.0
406,606.0,607.0,528.0,4.0,4.0,3.0
407,607.0,606.0,528.0,4.0,4.0,4.0
408,606.0,606.0,528.0,4.0,3.0,3.0
409,606.0,606.0,528.0,4.0,4.0,4.0
410,606.0,606.0,528.0,4.0,4.0,4.0
411,606.0,606.0,528.0,4.0,5.0,4.0
412,606.0,606.0,528.0,4.0,4.0,4.0
413,606.0,606.0,528.0,3.0,3.0,4.0
414,606.0,606.0,529.0,4.0,4.0,4.0
415,606.0,606.0,528.0,4.0,4.0,4.0
416,606.0,606.0,528.0,4.0,3.0,4.0
417,606.0,606.0,528.0,4.0,3.0,4.0
418,606.0,606.0,528.0,4.0,4.0,4.0
419,606.0,606.0,528.0,4.0,4.0,4.0
420,606.0,606.0,528.0,4.0,4.0,4.0
421,606.0,606.0,528.0,4.0,3.0,4.0
422,606.0,606.0,528.0,4.0,4.0,4.0
423,606.0,606.0,528.0,4.0,4.0,4.0
424,606.0,606.0,527.0,4.0,4.0,4.0
425,606.0,606.0,528.0,4.0,4.0,4.0
426,606.0,606.0,528.0,4.0,4.0,3.0
427,606.0,607.0,528.0,4.0,4.0,4.0
428,607.0,607.0,528.0,4.0,4.0,4.0
429,607.0,607.0,527.0,4.0,5.0,4.0
430,607.0,607.0,528.0,4.0,4.0,4.0
431,607.0,607.0,528.0,4.0,3.0,4.0
432,607.0,606.0,527.0,4.0,4.0,5.0
433,606.0,606.0,528.0,4.0,4.0,4.0
434,606.0,606.0,527.0,4.0,4.0,4.0
435,606.0,606.0,527.0,4.0,4.0,4.0
436,606.0,606.0,528.0,4.0,4.0,3.0
437,606.0,606.0,528.0,4.0,4.0,4.0
438,606.0,606.0,527.0,3.0,4.0,4.0
439,606.0,606.0,527.0,3.0,4.0,4.0
440,606.0,606.0,528.0,4.0,3.0,4.0
441,606.0,607.0,528.0,4.0,4.0,4.0
442,607.0,606.0,528.0,4.0,4.0,4.0
443,606.0,606.0,528.0,3.0,4.0,4.0
444,606.0,606.0,528.0,4.0,4.0,4.0
445,606.0,607.0,528.0,4.0,4.0,4.0
446,607.0,607.0,528.0,4.0,4.0,4.0
447,607.0,606.0,528.0,4.0,5.0,4.0
448,606.0,606.0,528.0,4.0,4.0,4.0
449,606.0,606.0,528.0,4.0,4.0,4.0
450,606.0,606.0,528.0,4.0,4.0,5.0
451,606.0,606.0,528.0,4.0,4.0,4.0
452,606.0,606.0,528.0,5.0,4.0,4.0
453,606.0,606.0,528.0,4.0,4.0,4.0
454,606.0,606.0,528.0,4.0,4.0,4.0
455,606.0,607.0,528.0,4.0,4.0,4.0
456,607.0,606.0,528.0,4.0,4.0,4.0
457,606.0,606.0,527.0,4.0,5.0,3.0
458,606.0,606.0,528.0,4.0,4.0,3.0
459,606.0,606.0,528.0,4.0,4.0,4.0
460,606.0,607.0,528.0,4.0,3.0,4.0
461,607.0,606.0,528.0,4.0,4.0,4.0
462,606.0,606.0,528.0,4.0,4.0,4.0
463,606.0,606.0,528.0,4.0,4.0,4.0
464,606.0,606.0,528.0,4.0,4.0,4.0
465,606.0,607.0,528.0,4.0,4.0,5.0
466,607.0,606.0,528.0,4.0,5.0,4.0
467,606.0,606.0,528.0,4.0,4.0,4.0
468,606.0,606.0,528.0,4.0,4.0,4.0
469,606.0,606.0,528.0,4.0,4.0,4.0
470,606.0,606.0,528.0,4.0,4.0,4.0
471,606.0,607.0,528.0,4.0,4.0,3.0
472,607.0,607.0,528.0,4.0,4.0,4.0
473,607.0,607.0,528.0,4.0,3.0,4.0
474,607.0,606.0,528.0,5.0,4.0,4.0
475,606.0,606.0,527.0,4.0,3.0,4.0
476,606.0,606.0,527.0,4.0,4.0,3.0
477,606.0,606.0,528.0,4.0,3.0,4.0
478,606.0,607.0,528.0,4.0,4.0,4.0
479,607.0,607.0,528.0,4.0,4.0,4.0
480,607.0,607.0,528.0,3.0,4.0,4.0
481,607.0,606.0,527.0,4.0,4.0,4.0
482,606.0,606.0,527.0,4.0,4.0,4.0
483,606.0,607.0,527.0,4.0,3.0,4.0
484,607.0,607.0,528.0,4.0,4.0,4.0
485,607.0,606.0,528.0,4.0,4.0,4.0
486,606.0,606.0,528.0,5.0,4.0,4.0
487,606.0,606.0,528.0,4.0,4.0,4.0
488,606.0,607.0,528.0,4.0,4.0,3.0
489,607.0,607.0,528.0,4.0,4.0,4.0
490,607.0,607.0,528.0,4.0,4.0,4.0
491,607.0,607.0,528.0,3.0,4.0,5.0
492,607.0,607.0,528.0,4.0,3.0,4.0
493,607.0,606.0,528.0,6.0,4.0,3.0
494,606.0,606.0,528.0,4.0,3.0,4.0
495,606.0,606.0,528.0,4.0,4.0,4.0
496,606.0,606.0,528.0,4.0,4.0,4.0
497,606.0,606.0,528.0,3.0,3.0,4.0
498,606.0,606.0,528.0,4.0,4.0,4.0
499,606.0,606.0,528.0,4.0,4.0,5.0
500,606.0,607.0,529.0,4.0,4.0,4.0
501,607.0,606.0,528.0,4.0,3.0,4.0
502,606.0,606.0,528.0,3.0,5.0,3.0
503,606.0,606.0,528.0,4.0,4.0,4.0
504,606.0,606.0,528.0,4.0,3.0,4.0
505,606.0,606.0,528.0,4.0,4.0,4.0
506,606.0,606.0,528.0,4.0,4.0,4.0
507,606.0,606.0,528.0,3.0,3.0,4.0
508,606.0,606.0,528.0,4.0,4.0,4.0
509,606.0,606.0,528.0,5.0,4.0,4.0
510,606.0,606.0,528.0,4.0,4.0,4.0
511,606.0,607.0,528.0,4.0,4.0,4.0
512,607.0,606.0,528.0,4.0,4.0,4.0
513,606.0,606.0,528.0,4.0,4.0,4.0
514,606.0,606.0,528.0,4.0,4.0,4.0
515,606.0,606.0,528.0,4.0,4.0,4.0
516,606.0,606.0,528.0,4.0,3.0,4.0
517,606.0,606.0,528.0,4.0,4.0,4.0
518,606.0,606.0,527.0,4.0,4.0,4.0
519,606.0,606.0,528.0,4.0,4.0,4.0
520,606.0,606.0,528.0,3.0,4.0,3.0
521,606.0,606.0,528.0,3.0,4.0,4.0
522,606.0,606.0,528.0,5.0,4.0,3.0
523,606.0,607.0,528.0,4.0,3.0,4.0
524,607.0,607.0,528.0,4.0,4.0,4.0
525,607.0,607.0,528.0,3.0,4.0,4.0
526,607.0,606.0,527.0,4.0,4.0,4.0
527,606.0,606.0,528.0,4.0,4.0,5.0
528,606.0,606.0,528.0,4.0,5.0,4.0
529,606.0,606.0,528.0,3.0,4.0,4.0
530,606.0,606.0,528.0,4.0,4.0,4.0
531,606.0,607.0,528.0,3.0,4.0,4.0
532,607.0,606.0,528.0,3.0,4.0,4.0
533,606.0,606.0,528.0,4.0,4.0,4.0
534,606.0,606.0,528.0,4.0,4.0,4.0
535,606.0,607.0,528.0,4.0,4.0,4.0
536,607.0,606.0,528.0,5.0,3.0,4.0
537,606.0,606.0,527.0,4.0,4.0,4.0
538,606.0,606.0,528.0,4.0,4.0,4.0
539,606.0,606.0,528.0,4.0,4.0,4.0
540,606.0,607.0,527.0,3.0,4.0,4.0
541,607.0,607.0,528.0,3.0,4.0,5.0
542,607.0,607.0,527.0,4.0,4.0,4.0
543,607.0,607.0,527.0,4.0,3.0,4.0
544,607.0,606.0,528.0,3.0,4.0,4.0
545,606.0,607.0,527.0,4.0,4.0,4.0
546,607.0,607.0,527.0,4.0,4.0,4.0
547,607.0,606.0,528.0,4.0,4.0,4.0
548,606.0,607.0,527.0,3.0,4.0,4.0
549,607.0,607.0,528.0,4.0,4.0,4.0
550,607.0,607.0,528.0,5.0,3.0,4.0
551,607.0,607.0,528.0,5.0,4.0,4.0
552,607.0,606.0,528.0,4.0,4.0,4.0
553,606.0,606.0,528.0,4.0,5.0,4.0
554,606.0,606.0,528.0,4.0,4.0,4.0
555,606.0,606.0,529.0,4.0,3.0,4.0
556,606.0,606.0,529.0,4.0,4.0,4.0
557,606.0,606.0,528.0,4.0,4.0,4.0
558,606.0,607.0,529.0,3.0,4.0,4.0
559,607.0,607.0,528.0,4.0,3.0,3.0
560,607.0,606.0,528.0,4.0,4.0,4.0
561,606.0,606.0,528.0,4.0,4.0,4.0
562,606.0,606.0,528.0,4.0,4.0,4.0
563,606.0,606.0,528.0,4.0,4.0,4.0
564,606.0,606.0,527.0,4.0,5.0,5.0
565,606.0,606.0,528.0,4.0,4.0,4.0
566,606.0,606.0,528.0,4.0,3.0,3.0
567,606.0,606.0,528.0,4.0,4.0,4.0
568,606.0,607.0,528.0,4.0,4.0,4.0
569,607.0,607.0,528.0,4.0,4.0,4.0
570,607.0,607.0,528.0,4.0,4.0,4.0
571,607.0,607.0,527.0,4.0,3.0,5.0
572,607.0,607.0,527.0,4.0,4.0,5.0
573,607.0,607.0,527.0,4.0,3.0,4.0
574,607.0,606.0,528.0,4.0,4.0,4.0
575,606.0,606.0,528.0,4.0,4.0,4.0
576,606.0,606.0,528.0,4.0,4.0,4.0
577,606.0,607.0,527.0,4.0,4.0,3.0
578,607.0,606.0,528.0,4.0,4.0,4.0
579,606.0,607.0,528.0,4.0,4.0,4.0
580,607.0,606.0,527.0,4.0,4.0,4.0
581,606.0,607.0,527.0,4.0,4.0,4.0
582,607.0,606.0,527.0,3.0,4.0,4.0
583,606.0,606.0,528.0,4.0,4.0,4.0
584,606.0,606.0,528.0,4.0,4.0,3.0
585,606.0,606.0,528.0,4.0,4.0,4.0
586,606.0,606.0,528.0,4.0,4.0,4.0
587,606.0,607.0,528.0,4.0,4.0,4.0
588,607.0,606.0,528.0,4.0,4.0,4.0
589,606.0,606.0,528.0,4.0,4.0,4.0
590,606.0,606.0,528.0,4.0,3.0,5.0
591,606.0,607.0,528.0,4.0,4.0,4.0
592,607.0,607.0,528.0,4.0,4.0,4.0
593,607.0,607.0,528.0,4.0,4.0,4.0
594,607.0,607.0,527.0,4.0,4.0,4.0
595,607.0,606.0,527.0,4.0,4.0,3.0
596,606.0,606.0,527.0,4.0,4.0,4.0
597,606.0,607.0,528.0,4.0,3.0,4.0
598,607.0,606.0,528.0,4.0,4.0,4.0
599,606.0,606.0,528.0,4.0,4.0,4.0
600,606.0,606.0,528.0,4.0,4.0,4.0
601,606.0,606.0,528.0,4.0,4.0,4.0
602,606.0,606.0,528.0,4.0,4.0,4.0
603,606.0,606.0,529.0,4.0,4.0,4.0
604,606.0,606.0,529.0,4.0,4.0,4.0
605,606.0,606.0,529.0,4.0,4.0,4.0
606,606.0,606.0,529.0,4.0,4.0,4.0
607,606.0,605.0,529.0,3.0,4.0,4.0
608,605.0,605.0,529.0,4.0,4.0,4.0
609,605.0,606.0,529.0,4.0,3.0,4.0
610,606.0,606.0,528.0,4.0,3.0,4.0
611,606.0,607.0,528.0,4.0,4.0,4.0
612,607.0,607.0,528.0,4.0,4.0,4.0
613,607.0,608.0,527.0,4.0,4.0,5.0
614,608.0,607.0,527.0,4.0,4.0,4.0
615,607.0,607.0,527.0,4.0,4.0,6.0
616,607.0,608.0,526.0,4.0,4.0,4.0
617,608.0,607.0,526.0,4.0,4.0,4.0
618,607.0,608.0,526.0,4.0,3.0,4.0
619,608.0,607.0,527.0,4.0,4.0,4.0
620,607.0,607.0,527.0,4.0,4.0,4.0
621,607.0,608.0,527.0,4.0,4.0,3.0
622,608.0,607.0,527.0,4.0,4.0,4.0
623,607.0,607.0,527.0,4.0,4.0,4.0
624,607.0,607.0,528.0,5.0,4.0,4.0
625,607.0,606.0,528.0,4.0,4.0,4.0
626,606.0,606.0,528.0,4.0,3.0,4.0
627,606.0,606.0,528.0,4.0,4.0,4.0
628,606.0,606.0,528.0,4.0,4.0,3.0
629,606.0,606.0,528.0,3.0,4.0,4.0
630,606.0,606.0,528.0,4.0,4.0,4.0
631,606.0,606.0,528.0,4.0,5.0,4.0
632,606.0,606.0,528.0,4.0,4.0,4.0
633,606.0,606.0,528.0,4.0,3.0,4.0
634,606.0,606.0,528.0,4.0,4.0,4.0
635,606.0,606.0,528.0,4.0,4.0,4.0
636,606.0,606.0,528.0,4.0,4.0,4.0
637,606.0,606.0,528.0,4.0,3.0,4.0
638,606.0,606.0,527.0,4.0,4.0,4.0
639,606.0,606.0,527.0,3.0,4.0,4.0
640,606.0,606.0,527.0,4.0,4.0,4.0
641,606.0,607.0,527.0,4.0,3.0,4.0
642,607.0,607.0,527.0,5.0,4.0,4.0
643,607.0,607.0,528.0,4.0,4.0,4.0
644,607.0,607.0,528.0,3.0,4.0,4.0
645,607.0,606.0,528.0,4.0,4.0,4.0
646,606.0,606.0,528.0,4.0,3.0,4.0
647,606.0,606.0,528.0,4.0,4.0,5.0
648,606.0,606.0,528.0,4.0,4.0,4.0
649,606.0,606.0,527.0,4.0,4.0,4.0
650,606.0,607.0,528.0,4.0,4.0,4.0
651,607.0,606.0,527.0,4.0,4.0,4.0
652,606.0,606.0,528.0,4.0,4.0,4.0
653,606.0,606.0,528.0,4.0,4.0,4.0
654,606.0,606.0,528.0,4.0,4.0,4.0
655,606.0,606.0,528.0,4.0,4.0,4.0
656,606.0,606.0,528.0,4.0,4.0,4.0
657,606.0,606.0,528.0,4.0,4.0,4.0
658,606.0,606.0,528.0,4.0,4.0,4.0
659,606.0,607.0,528.0,4.0,4.0,4.0
660,607.0,607.0,528.0,4.0,4.0,4.0
661,607.0,607.0,528.0,4.0,4.0,4.0
662,607.0,607.0,528.0,4.0,4.0,4.0
663,607.0,607.0,528.0,5.0,4.0,4.0
664,607.0,607.0,528.0,4.0,4.0,4.0
665,607.0,607.0,528.0,4.0,4.0,5.0
666,607.0,607.0,528.0,4.0,4.0,4.0
667,607.0,607.0,528.0,4.0,5.0,4.0
668,607.0,606.0,528.0,4.0,4.0,4.0
669,606.0,607.0,527.0,4.0,4.0,4.0
670,607.0,607.0,528.0,4.0,4.0,4.0
671,607.0,607.0,527.0,4.0,4.0,4.0
672,607.0,607.0,528.0,4.0,4.0,4.0
673,607.0,607.0,528.0,4.0,4.0,4.0
674,607.0,607.0,527.0,4.0,4.0,4.0
675,607.0,607.0,527.0,3.0,4.0,4.0
676,607.0,607.0,528.0,4.0,4.0,4.0
677,607.0,606.0,528.0,3.0,4.0,4.0
678,606.0,606.0,527.0,4.0,4.0,4.0
679,606.0,606.0,528.0,4.0,4.0,4.0
680,606.0,606.0,528.0,4.0,4.0,4.0
681,606.0,606.0,528.0,4.0,4.0,4.0
682,606.0,606.0,527.0,4.0,4.0,5.0
683,606.0,606.0,528.0,4.0,4.0,4.0
684,606.0,606.0,528.0,4.0,4.0,4.0
685,606.0,606.0,528.0,4.0,3.0,4.0
686,606.0,606.0,528.0,4.0,3.0,4.0
687,606.0,606.0,528.0,4.0,4.0,4.0
688,606.0,606.0,527.0,4.0,4.0,4.0
689,606.0,606.0,528.0,4.0,3.0,4.0
690,606.0,606.0,528.0,5.0,4.0,4.0
691,606.0,606.0,528.0,3.0,4.0,4.0
692,606.0,607.0,528.0,4.0,4.0,4.0
693,607.0,606.0,528.0,3.0,3.0,4.0
694,606.0,606.0,527.0,4.0,4.0,4.0
695,606.0,606.0,527.0,4.0,4.0,3.0
696,606.0,607.0,528.0,4.0,4.0,4.0
697,607.0,606.0,527.0,4.0,4.0,4.0
698,606.0,606.0,528.0,4.0,4.0,4.0
699,606.0,606.0,528.0,4.0,3.0,4.0
700,606.0,606.0,528.0,4.0,4.0,4.0
701,606.0,606.0,527.0,4.0,4.0,4.0
702,606.0,606.0,527.0,4.0,4.0,4.0
703,606.0,606.0,528.0,4.0,4.0,4.0
704,606.0,607.0,527.0,4.0,3.0,4.0
705,607.0,607.0,527.0,3.0,4.0,4.0
706,607.0,607.0,528.0,4.0,4.0,4.0
707,607.0,607.0,528.0,5.0,4.0,4.0
708,607.0,607.0,528.0,4.0,4.0,3.0
709,607.0,606.0,528.0,4.0,4.0,4.0
710,606.0,606.0,528.0,4.0,4.0,4.0
711,606.0,606.0,528.0,4.0,4.0,4.0
712,606.0,607.0,528.0,4.0,4.0,4.0
713,607.0,606.0,528.0,4.0,4.0,4.0
714,606.0,607.0,528.0,3.0,4.0,4.0
715,607.0,607.0,528.0,4.0,4.0,4.0
716,607.0,607.0,528.0,4.0,4.0,4.0
717,607.0,607.0,528.0,3.0,4.0,4.0
718,607.0,606.0,528.0,4.0,4.0,4.0
719,606.0,607.0,528.0,4.0,4.0,5.0
720,607.0,606.0,528.0,4.0,4.0,4.0
721,606.0,606.0,528.0,4.0,4.0,4.0
722,606.0,607.0,528.0,4.0,4.0,3.0
723,607.0,606.0,528.0,4.0,4.0,4.0
724,606.0,606.0,528.0,4.0,3.0,4.0
725,606.0,606.0,528.0,4.0,4.0,4.0
726,606.0,607.0,527.0,4.0,4.0,5.0
727,607.0,606.0,528.0,5.0,4.0,4.0
728,606.0,606.0,528.0,4.0,4.0,4.0
729,606.0,606.0,528.0,4.0,3.0,4.0
730,606.0,607.0,528.0,4.0,4.0,3.0
731,607.0,606.0,528.0,4.0,4.0,3.0
732,606.0,607.0,528.0,4.0,3.0,4.0
733,607.0,606.0,528.0,4.0,4.0,4.0
734,606.0,606.0,528.0,4.0,5.0,4.0
735,606.0,607.0,528.0,4.0,4.0,4.0
736,607.0,606.0,528.0,4.0,4.0,4.0
737,606.0,606.0,528.0,4.0,5.0,4.0
738,606.0,606.0,528.0,3.0,3.0,4.0
739,606.0,606.0,528.0,4.0,4.0,4.0
740,606.0,607.0,528.0,3.0,4.0,4.0
741,607.0,606.0,528.0,4.0,4.0,4.0
742,606.0,606.0,528.0,4.0,4.0,4.0
743,606.0,606.0,528.0,4.0,4.0,4.0
744,606.0,606.0,528.0,4.0,4.0,4.0
745,606.0,606.0,528.0,5.0,3.0,6.0
746,606.0,606.0,528.0,4.0,4.0,4.0
747,606.0,607.0,528.0,4.0,4.0,4.0
748,607.0,606.0,528.0,4.0,4.0,4.0
749,606.0,607.0,528.0,4.0,4.0,4.0
750,607.0,606.0,528.0,4.0,4.0,4.0
751,606.0,607.0,528.0,4.0,4.0,4.0
752,607.0,607.0,528.0,4.0,4.0,4.0
753,607.0,607.0,528.0,4.0,4.0,4.0
754,607.0,607.0,528.0,4.0,4.0,4.0
755,607.0,607.0,528.0,4.0,4.0,4.0
756,607.0,607.0,528.0,3.0,4.0,4.0
757,607.0,606.0,528.0,4.0,4.0,4.0
758,606.0,606.0,528.0,4.0,4.0,4.0
759,606.0,607.0,528.0,3.0,4.0,4.0
760,607.0,607.0,528.0,4.0,3.0,4.0
761,607.0,606.0,527.0,4.0,3.0,5.0
762,606.0,606.0,528.0,4.0,4.0,4.0
763,606.0,606.0,528.0,4.0,3.0,4.0
764,606.0,606.0,528.0,4.0,4.0,4.0
765,606.0,606.0,528.0,3.0,4.0,4.0
766,606.0,606.0,528.0,4.0,4.0,4.0
767,606.0,606.0,528.0,4.0,4.0,4.0
768,606.0,606.0,528.0,4.0,4.0,4.0
769,606.0,606.0,528.0,4.0,4.0,4.0
770,606.0,606.0,528.0,4.0,4.0,4.0
771,606.0,606.0,528.0,4.0,4.0,4.0
772,606.0,606.0,528.0,4.0,4.0,4.0
773,606.0,606.0,528.0,4.0,4.0,4.0
774,606.0,606.0,528.0,4.0,4.0,4.0
775,606.0,606.0,527.0,4.0,4.0,4.0
776,606.0,606.0,527.0,4.0,4.0,3.0
777,606.0,606.0,528.0,3.0,4.0,4.0
778,606.0,606.0,528.0,4.0,3.0,3.0
779,606.0,606.0,527.0,4.0,3.0,4.0
780,606.0,606.0,528.0,4.0,4.0,4.0
781,606.0,607.0,528.0,4.0,4.0,3.0
782,607.0,607.0,528.0,4.0,4.0,4.0
783,607.0,607.0,528.0,4.0,4.0,4.0
784,607.0,607.0,528.0,4.0,4.0,4.0
785,607.0,606.0,528.0,4.0,4.0,4.0
786,606.0,607.0,528.0,4.0,3.0,3.0
787,607.0,606.0,528.0,4.0,4.0,4.0
788,606.0,607.0,528.0,4.0,4.0,4.0
789,607.0,606.0,527.0,4.0,4.0,4.0
790,606.0,607.0,528.0,4.0,3.0,4.0
791,607.0,606.0,528.0,4.0,4.0,4.0
792,606.0,606.0,528.0,4.0,3.0,3.0
793,606.0,606.0,528.0,4.0,4.0,4.0
794,606.0,606.0,527.0,4.0,4.0,4.0
795,606.0,606.0,528.0,4.0,4.0,4.0
796,606.0,606.0,527.0,4.0,4.0,4.0
797,606.0,606.0,528.0,4.0,3.0,4.0
798,606.0,607.0,528.0,4.0,4.0,3.0
799,607.0,606.0,528.0,4.0,4.0,4.0
800,606.0,606.0,528.0,4.0,4.0,4.0
801,606.0,606.0,528.0,4.0,4.0,4.0
802,606.0,607.0,528.0,3.0,3.0,4.0
803,607.0,606.0,528.0,4.0,4.0,4.0
804,606.0,607.0,528.0,4.0,4.0,4.0
805,607.0,606.0,528.0,4.0,4.0,4.0
806,606.0,606.0,528.0,4.0,4.0,4.0
807,606.0,606.0,528.0,4.0,4.0,3.0
808,606.0,606.0,528.0,4.0,4.0,4.0
809,606.0,606.0,528.0,4.0,4.0,3.0
810,606.0,607.0,528.0,5.0,4.0,5.0
811,607.0,606.0,528.0,5.0,4.0,4.0
812,606.0,607.0,528.0,4.0,4.0,4.0
813,607.0,607.0,528.0,4.0,4.0,4.0
814,607.0,606.0,528.0,4.0,4.0,4.0
815,606.0,606.0,528.0,3.0,4.0,3.0
816,606.0,606.0,528.0,4.0,4.0,4.0
817,606.0,606.0,528.0,4.0,4.0,4.0
818,606.0,606.0,528.0,4.0,4.0,4.0
819,606.0,606.0,528.0,4.0,4.0,4.0
820,606.0,606.0,528.0,4.0,4.0,4.0
821,606.0,606.0,527.0,5.0,4.0,4.0
822,606.0,606.0,528.0,4.0,4.0,4.0
823,606.0,606.0,528.0,4.0,4.0,4.0
824,606.0,606.0,528.0,4.0,4.0,4.0
825,606.0,606.0,527.0,4.0,3.0,4.0
826,606.0,606.0,527.0,3.0,4.0,4.0
827,606.0,607.0,528.0,4.0,4.0,4.0
828,607.0,606.0,528.0,4.0,4.0,4.0
829,606.0,606.0,528.0,4.0,4.0,4.0
830,606.0,606.0,527.0,4.0,4.0,3.0
831,606.0,606.0,528.0,5.0,4.0,4.0
832,606.0,606.0,528.0,4.0,4.0,4.0
833,606.0,606.0,528.0,3.0,4.0,4.0
834,606.0,607.0,528.0,4.0,4.0,4.0
835,607.0,606.0,528.0,4.0,4.0,4.0
836,606.0,607.0,528.0,4.0,4.0,4.0
837,607.0,606.0,528.0,4.0,4.0,4.0
838,606.0,606.0,528.0,4.0,4.0,4.0
839,606.0,606.0,528.0,3.0,4.0,4.0
840,606.0,607.0,528.0,4.0,4.0,4.0
841,607.0,607.0,528.0,3.0,4.0,4.0
842,607.0,606.0,528.0,4.0,4.0,4.0
843,606.0,606.0,528.0,4.0,4.0,3.0
844,606.0,607.0,528.0,4.0,3.0,5.0
845,607.0,606.0,528.0,4.0,4.0,4.0
846,606.0,606.0,528.0,4.0,3.0,3.0
847,606.0,606.0,528.0,4.0,4.0,4.0
848,606.0,606.0,528.0,4.0,4.0,4.0
849,606.0,606.0,528.0,4.0,4.0,5.0
850,606.0,606.0,528.0,4.0,4.0,3.0
851,606.0,606.0,528.0,4.0,4.0,3.0
852,606.0,607.0,528.0,5.0,3.0,4.0
853,607.0,607.0,528.0,4.0,4.0,4.0
854,607.0,607.0,528.0,4.0,4.0,3.0
855,607.0,607.0,528.0,4.0,4.0,4.0
856,607.0,606.0,528.0,4.0,4.0,4.0
857,606.0,606.0,528.0,4.0,4.0,4.0
858,606.0,606.0,528.0,4.0,4.0,4.0
859,606.0,606.0,528.0,4.0,3.0,4.0
860,606.0,606.0,528.0,4.0,4.0,5.0
861,606.0,606.0,527.0,4.0,4.0,4.0
862,606.0,606.0,528.0,3.0,4.0,4.0
863,606.0,606.0,528.0,3.0,4.0,4.0
864,606.0,606.0,528.0,3.0,3.0,4.0
865,606.0,606.0,527.0,3.0,4.0,4.0
866,606.0,607.0,527.0,4.0,4.0,4.0
867,607.0,607.0,528.0,3.0,4.0,4.0
868,607.0,607.0,528.0,4.0,4.0,4.0
869,607.0,607.0,528.0,4.0,5.0,3.0
870,607.0,606.0,528.0,4.0,4.0,4.0
871,606.0,607.0,528.0,4.0,4.0,4.0
872,607.0,607.0,528.0,4.0,3.0,4.0
873,607.0,606.0,528.0,4.0,4.0,4.0
874,606.0,606.0,528.0,4.0,4.0,4.0
875,606.0,606.0,528.0,4.0,5.0,4.0
876,606.0,606.0,528.0,3.0,4.0,4.0
877,606.0,606.0,528.0,4.0,4.0,4.0
878,606.0,606.0,528.0,4.0,4.0,4.0
879,606.0,606.0,528.0,4.0,4.0,4.0
880,606.0,606.0,528.0,4.0,4.0,4.0
881,606.0,607.0,528.0,4.0,4.0,4.0
882,607.0,606.0,528.0,4.0,4.0,4.0
883,606.0,606.0,528.0,4.0,4.0,4.0
884,606.0,607.0,528.0,4.0,4.0,4.0
885,607.0,607.0,528.0,4.0,4.0,4.0
886,607.0,606.0,528.0,4.0,4.0,4.0
887,606.0,607.0,527.0,4.0,4.0,4.0
888,607.0,606.0,528.0,4.0,3.0,4.0
889,606.0,606.0,528.0,4.0,4.0,4.0
890,606.0,606.0,528.0,4.0,4.0,4.0
891,606.0,606.0,528.0,4.0,4.0,4.0
892,606.0,606.0,528.0,4.0,4.0,5.0
893,606.0,606.0,527.0,3.0,4.0,4.0
894,606.0,606.0,528.0,4.0,4.0,5.0
895,606.0,606.0,528.0,4.0,3.0,4.0
896,606.0,606.0,528.0,3.0,4.0,4.0
897,606.0,606.0,528.0,4.0,4.0,4.0
898,606.0,607.0,528.0,4.0,4.0,4.0
899,607.0,606.0,528.0,4.0,4.0,4.0
900,606.0,607.0,528.0,4.0,4.0,4.0
901,607.0,606.0,529.0,4.0,3.0,4.0
902,606.0,606.0,528.0,4.0,4.0,4.0
903,606.0,607.0,528.0,4.0,4.0,5.0
904,607.0,606.0,528.0,3.0,4.0,4.0
905,606.0,606.0,528.0,4.0,4.0,4.0
906,606.0,606.0,528.0,4.0,4.0,3.0
907,606.0,606.0,528.0,4.0,4.0,5.0
908,606.0,607.0,527.0,4.0,4.0,4.0
909,607.0,607.0,527.0,4.0,4.0,4.0
910,607.0,607.0,527.0,4.0,4.0,4.0
911,607.0,607.0,527.0,4.0,4.0,4.0
912,607.0,607.0,528.0,4.0,4.0,4.0
913,607.0,606.0,528.0,5.0,5.0,5.0
914,606.0,606.0,528.0,4.0,4.0,4.0
915,606.0,606.0,528.0,4.0,4.0,4.0
916,606.0,607.0,528.0,4.0,4.0,4.0
917,607.0,606.0,528.0,4.0,4.0,4.0
918,606.0,607.0,528.0,4.0,5.0,5.0
919,607.0,606.0,528.0,4.0,3.0,4.0
920,606.0,606.0,528.0,4.0,4.0,4.0
921,606.0,606.0,528.0,4.0,5.0,4.0
922,606.0,606.0,528.0,3.0,4.0,4.0
923,606.0,606.0,528.0,4.0,4.0,4.0
924,606.0,606.0,528.0,4.0,4.0,3.0
925,606.0,606.0,528.0,3.0,4.0,4.0
926,606.0,606.0,528.0,3.0,4.0,4.0
927,606.0,606.0,528.0,4.0,4.0,4.0
928,606.0,606.0,528.0,4.0,4.0,4.0
929,606.0,606.0,528.0,4.0,4.0,4.0
930,606.0,606.0,528.0,4.0,4.0,4.0
931,606.0,606.0,528.0,5.0,3.0,4.0
932,606.0,606.0,528.0,4.0,4.0,4.0
933,606.0,606.0,528.0,3.0,4.0,3.0
934,606.0,607.0,528.0,4.0,4.0,4.0
935,607.0,606.0,528.0,4.0,4.0,4.0
936,606.0,607.0,528.0,4.0,4.0,4.0
937,607.0,606.0,528.0,4.0,4.0,4.0
938,606.0,607.0,527.0,4.0,4.0,4.0
939,607.0,606.0,528.0,3.0,4.0,4.0
940,606.0,606.0,527.0,3.0,4.0,4.0
941,606.0,607.0,528.0,4.0,4.0,4.0
942,607.0,606.0,528.0,4.0,4.0,4.0
943,606.0,606.0,528.0,4.0,4.0,4.0
944,606.0,607.0,527.0,4.0,4.0,5.0
945,607.0,606.0,528.0,3.0,3.0,4.0
946,606.0,607.0,528.0,4.0,4.0,4.0
947,607.0,607.0,528.0,4.0,3.0,3.0
948,607.0,607.0,528.0,4.0,4.0,4.0
949,607.0,607.0,528.0,4.0,4.0,4.0
950,607.0,606.0,528.0,4.0,4.0,4.0
951,606.0,607.0,528.0,4.0,4.0,4.0
952,607.0,607.0,528.0,4.0,4.0,4.0
953,607.0,607.0,528.0,4.0,4.0,4.0
954,607.0,606.0,528.0,4.0,4.0,4.0
955,606.0,607.0,528.0,4.0,3.0,3.0
956,607.0,606.0,528.0,3.0,4.0,4.0
957,606.0,606.0,528.0,4.0,4.0,4.0
958,606.0,606.0,527.0,3.0,5.0,4.0
959,606.0,606.0,528.0,4.0,4.0,4.0
960,606.0,606.0,528.0,4.0,4.0,4.0
961,606.0,606.0,528.0,4.0,4.0,4.0
962,606.0,606.0,528.0,4.0,4.0,4.0
963,606.0,607.0,528.0,4.0,4.0,3.0
964,607.0,606.0,528.0,4.0,3.0,4.0
965,606.0,606.0,528.0,5.0,4.0,4.0
966,606.0,607.0,528.0,4.0,4.0,4.0
967,607.0,606.0,528.0,5.0,4.0,4.0
968,606.0,607.0,528.0,4.0,4.0,3.0
969,607.0,606.0,528.0,4.0,4.0,4.0
970,606.0,606.0,528.0,4.0,4.0,3.0
971,606.0,606.0,528.0,3.0,2.0,5.0
972,606.0,606.0,528.0,4.0,4.0,4.0
973,606.0,606.0,528.0,4.0,4.0,4.0
974,606.0,606.0,528.0,4.0,4.0,4.0
975,606.0,606.0,528.0,3.0,4.0,3.0
976,606.0,606.0,528.0,4.0,5.0,4.0
977,606.0,606.0,528.0,3.0,4.0,4.0
978,606.0,606.0,528.0,4.0,4.0,4.0
979,606.0,606.0,528.0,3.0,4.0,4.0
980,606.0,606.0,528.0,4.0,4.0,4.0
981,606.0,607.0,528.0,4.0,4.0,4.0
982,607.0,607.0,528.0,4.0,4.0,4.0
983,607.0,606.0,528.0,4.0,4.0,4.0
984,606.0,607.0,528.0,4.0,3.0,3.0
985,607.0,606.0,528.0,4.0,4.0,4.0
986,606.0,606.0,528.0,4.0,4.0,4.0
987,606.0,606.0,528.0,4.0,4.0,4.0
988,606.0,607.0,528.0,4.0,4.0,4.0
989,607.0,607.0,528.0,4.0,5.0,4.0
990,607.0,606.0,528.0,4.0,4.0,4.0
991,606.0,607.0,527.0,4.0,4.0,4.0
992,607.0,607.0,528.0,5.0,4.0,4.0
993,607.0,607.0,528.0,4.0,4.0,4.0
994,607.0,607.0,528.0,4.0,4.0,4.0
995,607.0,606.0,528.0,4.0,4.0,4.0
996,606.0,606.0,528.0,3.0,4.0,4.0
997,606.0,606.0,528.0,4.0,3.0,4.0
998,606.0,606.0,528.0,4.0,4.0,4.0
999,606.0,606.0,528.0,3.0,3.0,4.0
1000,606.0,607.0,528.0,4.0,3.0,4.0
1001,607.0,606.0,528.0,4.0,3.0,4.0
1002,606.0,606.0,528.0,4.0,4.0,4.0
1003,606.0,606.0,528.0,4.0,4.0,4.0
1004,606.0,606.0,528.0,4.0,4.0,4.0
1005,606.0,606.0,528.0,3.0,4.0,3.0
1006,606.0,606.0,528.0,4.0,4.0,4.0
1007,606.0,606.0,528.0,4.0,4.0,4.0
1008,606.0,606.0,528.0,4.0,4.0,4.0
1009,606.0,606.0,528.0,5.0,3.0,4.0
1010,606.0,606.0,528.0,3.0,4.0,4.0
1011,606.0,606.0,528.0,4.0,4.0,4.0
1012,606.0,606.0,528.0,4.0,4.0,4.0
1013,606.0,606.0,528.0,4.0,4.0,4.0
1014,606.0,606.0,528.0,5.0,3.0,4.0
1015,606.0,606.0,528.0,4.0,4.0,4.0
1016,606.0,606.0,529.0,4.0,3.0,4.0
1017,606.0,606.0,528.0,4.0,4.0,2.0
1018,606.0,606.0,528.0,4.0,4.0,4.0
1019,606.0,606.0,527.0,4.0,3.0,4.0
1020,606.0,606.0,528.0,4.0,4.0,3.0
1021,606.0,606.0,528.0,4.0,4.0,4.0
1022,606.0,606.0,528.0,4.0,3.0,4.0
1023,606.0,606.0,528.0,5.0,3.0,4.0
1024,606.0,606.0,528.0,4.0,4.0,4.0
1025,606.0,606.0,528.0,4.0,4.0,4.0
1026,606.0,606.0,528.0,4.0,4.0,4.0
1027,606.0,606.0,528.0,4.0,4.0,4.0
1028,606.0,606.0,528.0,4.0,3.0,4.0
1029,606.0,606.0,528.0,4.0,4.0,4.0
1030,606.0,606.0,528.0,4.0,4.0,5.0
1031,606.0,606.0,528.0,4.0,4.0,4.0
1032,606.0,606.0,528.0,4.0,4.0,4.0
1033,606.0,607.0,528.0,4.0,4.0,4.0
1034,607.0,606.0,528.0,4.0,4.0,4.0
1035,606.0,606.0,528.0,4.0,4.0,4.0
1036,606.0,606.0,528.0,5.0,4.0,4.0
1037,606.0,606.0,528.0,4.0,4.0,3.0
1038,606.0,606.0,528.0,4.0,4.0,4.0
1039,606.0,606.0,528.0,4.0,4.0,4.0
1040,606.0,606.0,528.0,3.0,4.0,6.0
1041,606.0,606.0,528.0,3.0,4.0,4.0
1042,606.0,607.0,528.0,4.0,4.0,4.0
1043,607.0,607.0,528.0,4.0,3.0,4.0
1044,607.0,606.0,528.0,4.0,4.0,4.0
1045,606.0,606.0,529.0,3.0,3.0,5.0
1046,606.0,606.0,529.0,3.0,4.0,4.0
1047,606.0,606.0,528.0,4.0,4.0,4.0
1048,606.0,606.0,528.0,4.0,3.0,4.0
1049,606.0,606.0,528.0,4.0,4.0,4.0
1050,606.0,606.0,528.0,4.0,4.0,5.0
1051,606.0,606.0,528.0,4.0,4.0,4.0
1052,606.0,607.0,528.0,4.0,4.0,4.0
1053,607.0,606.0,528.0,4.0,4.0,4.0
1054,606.0,606.0,528.0,4.0,3.0,4.0
1055,606.0,606.0,528.0,4.0,4.0,4.0
1056,606.0,606.0,528.0,4.0,4.0,4.0
1057,606.0,606.0,528.0,3.0,4.0,4.0
1058,606.0,606.0,528.0,4.0,3.0,4.0
1059,606.0,607.0,528.0,4.0,3.0,5.0
1060,607.0,607.0,527.0,4.0,4.0,3.0
1061,607.0,607.0,528.0,4.0,3.0,5.0
1062,607.0,606.0,528.0,4.0,4.0,4.0
1063,606.0,606.0,528.0,4.0,4.0,3.0
1064,606.0,607.0,528.0,4.0,3.0,5.0
1065,607.0,606.0,528.0,4.0,4.0,4.0
1066,606.0,607.0,527.0,4.0,4.0,4.0
1067,607.0,607.0,528.0,4.0,3.0,4.0
1068,607.0,607.0,528.0,4.0,4.0,4.0
1069,607.0,607.0,527.0,3.0,4.0,4.0
1070,607.0,606.0,528.0,4.0,4.0,4.0
1071,606.0,607.0,528.0,4.0,3.0,4.0
1072,607.0,607.0,528.0,3.0,4.0,4.0
1073,607.0,607.0,528.0,4.0,4.0,4.0
1074,607.0,606.0,528.0,4.0,4.0,4.0
1075,606.0,606.0,528.0,4.0,4.0,4.0
1076,606.0,606.0,528.0,3.0,5.0,3.0
1077,606.0,606.0,528.0,4.0,4.0,4.0
1078,606.0,605.0,528.0,4.0,4.0,4.0
1079,605.0,606.0,528.0,4.0,3.0,4.0
1080,606.0,606.0,528.0,4.0,3.0,4.0
1081,606.0,606.0,528.0,4.0,4.0,4.0
1082,606.0,607.0,528.0,4.0,4.0,4.0
1083,607.0,607.0,528.0,4.0,4.0,3.0
1084,607.0,606.0,528.0,4.0,3.0,4.0
1085,606.0,607.0,528.0,4.0,4.0,4.0
1086,607.0,607.0,528.0,3.0,4.0,4.0
1087,607.0,607.0,528.0,3.0,4.0,3.0
1088,607.0,606.0,528.0,4.0,4.0,4.0
1089,606.0,606.0,528.0,4.0,3.0,4.0
1090,606.0,606.0,528.0,4.0,4.0,4.0
1091,606.0,606.0,528.0,4.0,4.0,4.0
1092,606.0,606.0,528.0,4.0,3.0,5.0
1093,606.0,606.0,528.0,4.0,4.0,4.0
1094,606.0,606.0,528.0,4.0,4.0,4.0
1095,606.0,606.0,528.0,4.0,4.0,4.0
1096,606.0,606.0,528.0,4.0,4.0,4.0
1097,606.0,606.0,528.0,4.0,4.0,4.0
1098,606.0,606.0,529.0,4.0,3.0,4.0
1099,606.0,606.0,529.0,4.0,3.0,4.0
1100,606.0,606.0,528.0,5.0,4.0,5.0
1101,606.0,606.0,528.0,4.0,4.0,4.0
1102,606.0,607.0,529.0,4.0,3.0,4.0
1103,607.0,607.0,528.0,4.0,4.0,4.0
1104,607.0,606.0,528.0,4.0,4.0,5.0
1105,606.0,607.0,528.0,4.0,4.0,4.0
1106,607.0,607.0,528.0,4.0,4.0,4.0
1107,607.0,607.0,528.0,4.0,3.0,3.0
1108,607.0,607.0,528.0,4.0,4.0,4.0
1109,607.0,607.0,527.0,4.0,4.0,4.0
1110,607.0,607.0,527.0,4.0,3.0,4.0
1111,607.0,606.0,528.0,4.0,4.0,4.0
1112,606.0,607.0,528.0,5.0,4.0,4.0
1113,607.0,606.0,528.0,4.0,4.0,4.0
1114,606.0,606.0,528.0,4.0,4.0,4.0
1115,606.0,606.0,528.0,5.0,4.0,4.0
1116,606.0,607.0,528.0,4.0,4.0,3.0
1117,607.0,607.0,528.0,4.0,4.0,4.0
1118,607.0,607.0,528.0,5.0,4.0,4.0
1119,607.0,607.0,528.0,4.0,4.0,4.0
1120,607.0,607.0,528.0,4.0,5.0,4.0
1121,607.0,606.0,528.0,4.0,4.0,4.0
1122,606.0,606.0,528.0,4.0,4.0,4.0
1123,606.0,606.0,528.0,4.0,4.0,4.0
1124,606.0,606.0,528.0,4.0,3.0,4.0
1125,606.0,606.0,527.0,4.0,4.0,4.0
1126,606.0,606.0,528.0,4.0,4.0,4.0
1127,606.0,606.0,527.0,4.0,4.0,3.0
1128,606.0,606.0,528.0,4.0,4.0,3.0
1129,606.0,607.0,528.0,4.0,4.0,5.0
1130,607.0,607.0,528.0,4.0,4.0,4.0
1131,607.0,606.0,528.0,4.0,4.0,4.0
1132,606.0,607.0,527.0,4.0,4.0,4.0
1133,607.0,607.0,528.0,4.0,4.0,4.0
1134,607.0,607.0,528.0,5.0,5.0,5.0
1135,607.0,607.0,528.0,4.0,4.0,4.0
1136,607.0,606.0,527.0,4.0,4.0,4.0
1137,606.0,606.0,527.0,4.0,4.0,4.0
1138,606.0,606.0,527.0,3.0,4.0,4.0
1139,606.0,606.0,528.0,4.0,6.0,4.0
1140,606.0,606.0,527.0,4.0,4.0,4.0
1141,606.0,607.0,528.0,4.0,3.0,4.0
1142,607.0,607.0,528.0,4.0,4.0,4.0
1143,607.0,607.0,528.0,4.0,4.0,3.0
1144,607.0,607.0,528.0,4.0,3.0,4.0
1145,607.0,607.0,529.0,4.0,4.0,4.0
1146,607.0,607.0,529.0,4.0,4.0,4.0
1147,607.0,606.0,528.0,4.0,4.0,4.0
1148,606.0,606.0,529.0,4.0,4.0,4.0
1149,606.0,606.0,528.0,3.0,4.0,4.0
1150,606.0,606.0,528.0,3.0,4.0,4.0
1151,606.0,606.0,528.0,4.0,4.0,5.0
1152,606.0,606.0,528.0,5.0,4.0,4.0
1153,606.0,606.0,529.0,4.0,4.0,4.0
1154,606.0,607.0,528.0,4.0,4.0,4.0
1155,607.0,606.0,528.0,4.0,4.0,4.0
1156,606.0,607.0,528.0,4.0,4.0,4.0
1157,607.0,607.0,528.0,4.0,4.0,4.0
1158,607.0,606.0,528.0,4.0,3.0,4.0
1159,606.0,606.0,528.0,4.0,4.0,3.0
1160,606.0,607.0,528.0,3.0,3.0,4.0
1161,607.0,606.0,527.0,4.0,3.0,4.0
1162,606.0,606.0,528.0,5.0,4.0,4.0
1163,606.0,606.0,528.0,4.0,4.0,4.0
1164,606.0,606.0,528.0,4.0,3.0,4.0
1165,606.0,606.0,528.0,5.0,4.0,5.0
1166,606.0,606.0,528.0,4.0,4.0,4.0
1167,606.0,607.0,528.0,4.0,4.0,4.0
1168,607.0,607.0,528.0,4.0,4.0,4.0
1169,607.0,606.0,528.0,4.0,3.0,4.0
1170,606.0,606.0,528.0,4.0,3.0,4.0
1171,606.0,607.0,528.0,4.0,4.0,4.0
1172,607.0,607.0,528.0,4.0,4.0,4.0
1173,607.0,606.0,528.0,4.0,4.0,4.0
1174,606.0,606.0,527.0,4.0,4.0,4.0
1175,606.0,606.0,529.0,4.0,4.0,4.0
1176,606.0,607.0,528.0,4.0,4.0,4.0
1177,607.0,607.0,528.0,4.0,4.0,4.0
1178,607.0,607.0,528.0,4.0,4.0,3.0
1179,607.0,606.0,528.0,4.0,4.0,4.0
1180,606.0,606.0,528.0,4.0,5.0,4.0
1181,606.0,606.0,528.0,4.0,5.0,4.0
1182,606.0,606.0,528.0,4.0,4.0,4.0
1183,606.0,606.0,528.0,4.0,4.0,4.0
1184,606.0,606.0,528.0,4.0,4.0,4.0
1185,606.0,606.0,528.0,4.0,5.0,4.0
1186,606.0,606.0,528.0,4.0,4.0,4.0
1187,606.0,607.0,528.0,4.0,4.0,4.0
1188,607.0,606.0,528.0,4.0,4.0,4.0
1189,606.0,606.0,529.0,4.0,4.0,4.0
1190,606.0,606.0,529.0,4.0,4.0,4.0
1191,606.0,606.0,528.0,4.0,4.0,4.0
1192,606.0,606.0,528.0,4.0,4.0,4.0
1193,606.0,606.0,529.0,3.0,4.0,4.0
1194,606.0,606.0,528.0,3.0,4.0,4.0
1195,606.0,606.0,529.0,4.0,4.0,4.0
1196,606.0,606.0,528.0,4.0,3.0,4.0
1197,606.0,606.0,528.0,4.0,4.0,4.0
1198,606.0,607.0,528.0,4.0,3.0,4.0
1199,607.0,606.0,527.0,5.0,4.0,4.0
1200,606.0,606.0,528.0,4.0,3.0,4.0
1201,606.0,606.0,528.0,4.0,3.0,4.0
1202,606.0,606.0,528.0,4.0,3.0,4.0
1203,606.0,607.0,528.0,4.0,5.0,5.0
1204,607.0,606.0,528.0,4.0,3.0,4.0
1205,606.0,606.0,528.0,4.0,4.0,4.0
1206,606.0,606.0,528.0,3.0,4.0,4.0
1207,606.0,606.0,528.0,4.0,4.0,4.0
1208,606.0,607.0,528.0,4.0,3.0,5.0
1209,607.0,607.0,528.0,4.0,4.0,4.0
1210,607.0,607.0,528.0,4.0,4.0,4.0
1211,607.0,607.0,528.0,4.0,4.0,4.0
1212,607.0,606.0,528.0,4.0,4.0,4.0
1213,606.0,606.0,528.0,4.0,4.0,4.0
1214,606.0,606.0,528.0,4.0,4.0,4.0
1215,606.0,606.0,528.0,4.0,4.0,4.0
1216,606.0,606.0,528.0,4.0,4.0,4.0
1217,606.0,607.0,528.0,4.0,3.0,3.0
1218,607.0,606.0,528.0,4.0,3.0,3.0
1219,606.0,606.0,527.0,3.0,3.0,4.0
1220,606.0,606.0,528.0,4.0,4.0,4.0
1221,606.0,606.0,528.0,4.0,4.0,4.0
1222,606.0,606.0,528.0,4.0,4.0,5.0
1223,606.0,606.0,528.0,4.0,4.0,4.0
1224,606.0,606.0,527.0,4.0,3.0,4.0
1225,606.0,606.0,528.0,4.0,4.0,3.0
1226,606.0,606.0,528.0,4.0,4.0,4.0
1227,606.0,606.0,528.0,3.0,4.0,4.0
1228,606.0,606.0,528.0,4.0,4.0,4.0
1229,606.0,607.0,528.0,4.0,4.0,4.0
1230,607.0,607.0,528.0,4.0,5.0,5.0
1231,607.0,607.0,527.0,4.0,4.0,4.0
1232,607.0,606.0,528.0,4.0,3.0,4.0
1233,606.0,607.0,528.0,4.0,4.0,4.0
1234,607.0,606.0,528.0,4.0,3.0,4.0
1235,606.0,606.0,528.0,4.0,3.0,4.0
1236,606.0,606.0,528.0,4.0,4.0,4.0
1237,606.0,607.0,528.0,4.0,4.0,4.0
1238,607.0,606.0,528.0,4.0,4.0,4.0
1239,606.0,607.0,528.0,4.0,4.0,4.0
1240,607.0,607.0,528.0,4.0,4.0,4.0
1241,607.0,606.0,528.0,4.0,4.0,4.0
1242,606.0,606.0,528.0,4.0,4.0,4.0
1243,606.0,607.0,528.0,4.0,4.0,4.0
1244,607.0,606.0,528.0,4.0,4.0,4.0
1245,606.0,607.0,528.0,4.0,3.0,4.0
1246,607.0,606.0,528.0,4.0,4.0,4.0
1247,606.0,606.0,528.0,5.0,4.0,3.0
1248,606.0,606.0,528.0,4.0,4.0,4.0
1249,606.0,606.0,528.0,4.0,4.0,4.0
1250,606.0,607.0,529.0,3.0,4.0,4.0
1251,607.0,606.0,528.0,3.0,4.0,4.0
1252,606.0,606.0,528.0,4.0,4.0,4.0
1253,606.0,606.0,528.0,6.0,4.0,4.0
1254,606.0,606.0,528.0,4.0,4.0,4.0
1255,606.0,606.0,528.0,4.0,4.0,4.0
1256,606.0,606.0,528.0,4.0,3.0,4.0
1257,606.0,606.0,528.0,4.0,4.0,5.0
1258,606.0,607.0,528.0,4.0,4.0,4.0
1259,607.0,605.0,528.0,3.0,4.0,4.0
1260,605.0,606.0,528.0,4.0,4.0,4.0
1261,606.0,606.0,528.0,5.0,3.0,4.0
1262,606.0,607.0,528.0,4.0,4.0,4.0
1263,607.0,606.0,528.0,4.0,4.0,4.0
1264,606.0,607.0,528.0,4.0,4.0,4.0
1265,607.0,606.0,528.0,4.0,4.0,4.0
1266,606.0,607.0,528.0,4.0,4.0,4.0
1267,607.0,606.0,528.0,4.0,4.0,4.0
1268,606.0,607.0,528.0,4.0,4.0,4.0
1269,607.0,606.0,528.0,4.0,5.0,4.0
1270,606.0,607.0,528.0,4.0,4.0,4.0
1271,607.0,607.0,528.0,4.0,4.0,4.0
1272,607.0,606.0,528.0,4.0,4.0,4.0
1273,606.0,606.0,528.0,4.0,3.0,4.0
1274,606.0,607.0,528.0,4.0,3.0,4.0
1275,607.0,606.0,528.0,4.0,4.0,4.0
1276,606.0,606.0,528.0,4.0,4.0,4.0
1277,606.0,606.0,527.0,4.0,4.0,4.0
1278,606.0,606.0,528.0,4.0,3.0,4.0
1279,606.0,606.0,528.0,4.0,3.0,4.0
1280,606.0,606.0,529.0,4.0,4.0,4.0
1281,606.0,607.0,528.0,4.0,5.0,5.0
1282,607.0,607.0,527.0,4.0,4.0,4.0
1283,607.0,606.0,528.0,4.0,4.0,5.0
1284,606.0,606.0,528.0,4.0,4.0,3.0
1285,606.0,606.0,528.0,4.0,4.0,4.0
1286,606.0,606.0,528.0,5.0,3.0,4.0
1287,606.0,606.0,528.0,3.0,4.0,5.0
1288,606.0,606.0,528.0,4.0,4.0,5.0
1289,606.0,606.0,528.0,4.0,4.0,4.0
1290,606.0,606.0,528.0,4.0,4.0,4.0
1291,606.0,606.0,528.0,3.0,4.0,5.0
1292,606.0,607.0,528.0,4.0,3.0,4.0
1293,607.0,607.0,528.0,4.0,4.0,4.0
1294,607.0,606.0,528.0,4.0,4.0,4.0
1295,606.0,606.0,528.0,5.0,4.0,4.0
1296,606.0,607.0,528.0,4.0,4.0,3.0
1297,607.0,606.0,528.0,4.0,4.0,3.0
1298,606.0,606.0,528.0,4.0,4.0,4.0
1299,606.0,607.0,528.0,4.0,4.0,4.0
1300,607.0,607.0,528.0,4.0,4.0,4.0
1301,607.0,606.0,528.0,3.0,4.0,4.0
1302,606.0,606.0,528.0,4.0,4.0,4.0
1303,606.0,607.0,527.0,4.0,4.0,4.0
1304,607.0,608.0,528.0,3.0,4.0,4.0
1305,608.0,607.0,528.0,3.0,4.0,4.0
1306,607.0,606.0,528.0,4.0,4.0,4.0
1307,606.0,606.0,528.0,4.0,4.0,4.0
1308,606.0,606.0,528.0,4.0,3.0,4.0
1309,606.0,606.0,528.0,3.0,4.0,4.0
1310,606.0,606.0,528.0,4.0,4.0,4.0
1311,606.0,606.0,529.0,4.0,4.0,4.0
1312,606.0,607.0,528.0,4.0,4.0,4.0
1313,607.0,606.0,528.0,4.0,4.0,4.0
1314,606.0,607.0,529.0,4.0,4.0,4.0
1315,607.0,606.0,528.0,4.0,3.0,5.0
1316,606.0,606.0,528.0,4.0,4.0,4.0
1317,606.0,606.0,528.0,4.0,4.0,4.0
1318,606.0,606.0,528.0,5.0,4.0,4.0
1319,606.0,606.0,528.0,4.0,4.0,4.0
1320,606.0,606.0,528.0,5.0,4.0,4.0
1321,606.0,606.0,528.0,4.0,4.0,4.0
1322,606.0,606.0,528.0,4.0,4.0,4.0
1323,606.0,606.0,528.0,5.0,3.0,4.0
1324,606.0,606.0,528.0,4.0,3.0,4.0
1325,606.0,606.0,528.0,4.0,4.0,4.0
1326,606.0,607.0,527.0,4.0,4.0,5.0
1327,607.0,607.0,528.0,4.0,4.0,4.0
1328,607.0,607.0,528.0,4.0,4.0,4.0
1329,607.0,606.0,528.0,5.0,4.0,4.0
1330,606.0,606.0,528.0,4.0,6.0,3.0
1331,606.0,606.0,528.0,3.0,5.0,4.0
1332,606.0,606.0,528.0,4.0,4.0,4.0
1333,606.0,606.0,528.0,4.0,4.0,5.0
1334,606.0,606.0,528.0,5.0,4.0,4.0
1335,606.0,606.0,527.0,4.0,3.0,4.0
1336,606.0,606.0,528.0,4.0,3.0,4.0
1337,606.0,606.0,528.0,4.0,4.0,4.0
1338,606.0,606.0,528.0,4.0,4.0,4.0
1339,606.0,606.0,528.0,4.0,4.0,4.0
1340,606.0,607.0,528.0,3.0,4.0,4.0
1341,607.0,606.0,528.0,4.0,3.0,4.0
1342,606.0,606.0,528.0,4.0,4.0,4.0
1343,606.0,606.0,528.0,4.0,4.0,4.0
1344,606.0,606.0,528.0,4.0,4.0,4.0
1345,606.0,606.0,528.0,4.0,4.0,4.0
1346,606.0,607.0,528.0,3.0,4.0,4.0
1347,607.0,606.0,528.0,4.0,4.0,4.0
1348,606.0,607.0,528.0,4.0,4.0,5.0
1349,607.0,607.0,528.0,4.0,4.0,4.0
1350,607.0,607.0,528.0,4.0,4.0,4.0
1351,607.0,607.0,528.0,3.0,4.0,4.0
1352,607.0,606.0,528.0,5.0,4.0,4.0
1353,606.0,606.0,528.0,4.0,2.0,4.0
1354,606.0,606.0,528.0,4.0,4.0,4.0
1355,606.0,607.0,528.0,4.0,4.0,4.0
1356,607.0,607.0,528.0,3.0,3.0,4.0
1357,607.0,607.0,528.0,4.0,4.0,3.0
1358,607.0,607.0,528.0,4.0,4.0,4.0
1359,607.0,607.0,528.0,5.0,4.0,4.0
1360,607.0,606.0,528.0,4.0,4.0,4.0
1361,606.0,607.0,528.0,4.0,4.0,4.0
1362,607.0,606.0,528.0,4.0,4.0,4.0
1363,606.0,606.0,528.0,4.0,4.0,4.0
1364,606.0,606.0,528.0,4.0,4.0,3.0
1365,606.0,606.0,528.0,4.0,4.0,4.0
1366,606.0,606.0,529.0,4.0,3.0,1.0
1367,606.0,606.0,528.0,4.0,4.0,4.0
1368,606.0,607.0,528.0,4.0,4.0,4.0
1369,607.0,606.0,528.0,4.0,4.0,4.0
1370,606.0,606.0,528.0,4.0,4.0,4.0
1371,606.0,606.0,528.0,4.0,4.0,4.0
1372,606.0,607.0,528.0,4.0,4.0,4.0
1373,607.0,606.0,528.0,4.0,4.0,4.0
1374,606.0,606.0,528.0,4.0,4.0,4.0
1375,606.0,606.0,528.0,4.0,3.0,4.0
1376,606.0,606.0,528.0,4.0,4.0,4.0
1377,606.0,606.0,528.0,4.0,3.0,4.0
1378,606.0,606.0,528.0,5.0,4.0,4.0
1379,606.0,606.0,528.0,4.0,4.0,5.0
1380,606.0,607.0,528.0,4.0,3.0,3.0
1381,607.0,606.0,527.0,4.0,4.0,4.0
1382,606.0,607.0,528.0,4.0,4.0,5.0
1383,607.0,607.0,528.0,4.0,4.0,4.0
1384,607.0,606.0,528.0,4.0,4.0,4.0
1385,606.0,606.0,528.0,4.0,4.0,4.0
1386,606.0,606.0,528.0,4.0,4.0,4.0
1387,606.0,606.0,528.0,4.0,4.0,4.0
1388,606.0,607.0,528.0,4.0,4.0,4.0
1389,607.0,606.0,528.0,4.0,3.0,4.0
1390,606.0,606.0,528.0,4.0,4.0,4.0
1391,606.0,606.0,529.0,4.0,4.0,4.0
1392,606.0,606.0,528.0,4.0,4.0,3.0
1393,606.0,606.0,528.0,4.0,4.0,4.0
1394,606.0,606.0,528.0,4.0,4.0,4.0
1395,606.0,606.0,528.0,4.0,4.0,4.0
1396,606.0,606.0,528.0,4.0,4.0,4.0
1397,606.0,606.0,528.0,4.0,4.0,4.0
1398,606.0,606.0,528.0,4.0,4.0,4.0
1399,606.0,607.0,528.0,4.0,3.0,4.0
1400,607.0,607.0,528.0,4.0,4.0,5.0
1401,607.0,607.0,528.0,4.0,4.0,4.0
1402,607.0,606.0,528.0,4.0,4.0,4.0
1403,606.0,606.0,528.0,4.0,4.0,4.0
1404,606.0,606.0,528.0,4.0,4.0,4.0
1405,606.0,607.0,528.0,4.0,4.0,4.0
1406,607.0,607.0,528.0,4.0,4.0,4.0
1407,607.0,607.0,528.0,4.0,4.0,4.0
1408,607.0,607.0,528.0,4.0,4.0,4.0
1409,607.0,607.0,528.0,4.0,4.0,4.0
1410,607.0,607.0,528.0,4.0,3.0,4.0
1411,607.0,607.0,528.0,5.0,4.0,4.0
1412,607.0,607.0,528.0,4.0,4.0,4.0
1413,607.0,606.0,528.0,4.0,4.0,5.0
1414,606.0,606.0,528.0,4.0,4.0,4.0
1415,606.0,606.0,529.0,4.0,4.0,3.0
1416,606.0,606.0,528.0,3.0,5.0,4.0
1417,606.0,606.0,529.0,4.0,4.0,4.0
1418,606.0,607.0,529.0,4.0,4.0,4.0
1419,607.0,606.0,529.0,4.0,4.0,4.0
1420,606.0,606.0,528.0,4.0,4.0,4.0
1421,606.0,606.0,529.0,3.0,4.0,4.0
1422,606.0,606.0,528.0,4.0,4.0,4.0
1423,606.0,606.0,528.0,4.0,4.0,4.0
1424,606.0,606.0,528.0,4.0,4.0,4.0
1425,606.0,606.0,528.0,4.0,4.0,4.0
1426,606.0,606.0,528.0,5.0,4.0,4.0
1427,606.0,606.0,528.0,5.0,4.0,4.0
1428,606.0,606.0,528.0,4.0,3.0,4.0
1429,606.0,607.0,528.0,5.0,4.0,4.0
1430,607.0,607.0,528.0,4.0,4.0,4.0
1431,607.0,607.0,528.0,4.0,5.0,4.0
1432,607.0,606.0,528.0,4.0,4.0,4.0
1433,606.0,606.0,528.0,4.0,4.0,4.0
1434,606.0,606.0,528.0,3.0,4.0,4.0
1435,606.0,606.0,528.0,4.0,4.0,4.0
1436,606.0,606.0,528.0,4.0,3.0,4.0
1437,606.0,606.0,528.0,3.0,4.0,4.0
1438,606.0,606.0,528.0,4.0,4.0,4.0
1439,606.0,606.0,528.0,4.0,4.0,4.0
1440,606.0,606.0,528.0,3.0,4.0,4.0
1441,606.0,606.0,528.0,4.0,4.0,3.0
1442,606.0,606.0,528.0,5.0,4.0,5.0
1443,606.0,606.0,528.0,4.0,4.0,4.0
1444,606.0,606.0,528.0,3.0,4.0,4.0
1445,606.0,607.0,528.0,4.0,4.0,4.0
1446,607.0,606.0,528.0,4.0,4.0,4.0
1447,606.0,606.0,528.0,4.0,4.0,4.0
1448,606.0,606.0,528.0,4.0,4.0,4.0
1449,606.0,606.0,528.0,4.0,4.0,4.0
1450,606.0,606.0,528.0,4.0,4.0,5.0
1451,606.0,606.0,528.0,4.0,4.0,4.0
1452,606.0,606.0,528.0,4.0,4.0,4.0
1453,606.0,606.0,528.0,4.0,4.0,4.0
1454,606.0,606.0,528.0,4.0,4.0,4.0
1455,606.0,606.0,528.0,4.0,5.0,4.0
1456,606.0,606.0,528.0,3.0,4.0,4.0
1457,606.0,606.0,529.0,4.0,3.0,4.0
1458,606.0,606.0,528.0,4.0,4.0,4.0
1459,606.0,607.0,527.0,3.0,4.0,4.0
1460,607.0,607.0,528.0,4.0,3.0,4.0
1461,607.0,607.0,528.0,4.0,4.0,4.0
1462,607.0,606.0,528.0,5.0,4.0,4.0
1463,606.0,607.0,528.0,4.0,4.0,4.0
1464,607.0,606.0,528.0,4.0,4.0,4.0
1465,606.0,606.0,528.0,4.0,4.0,4.0
1466,606.0,606.0,528.0,4.0,4.0,4.0
1467,606.0,606.0,528.0,4.0,3.0,3.0
1468,606.0,607.0,527.0,4.0,4.0,4.0
1469,607.0,606.0,528.0,4.0,4.0,4.0
1470,606.0,607.0,528.0,4.0,4.0,4.0
1471,607.0,606.0,528.0,4.0,4.0,4.0
1472,606.0,607.0,528.0,4.0,3.0,4.0
1473,607.0,607.0,528.0,4.0,4.0,4.0
1474,607.0,607.0,527.0,4.0,4.0,4.0
1475,607.0,606.0,528.0,5.0,4.0,4.0
1476,606.0,606.0,528.0,3.0,4.0,4.0
1477,606.0,606.0,528.0,4.0,4.0,4.0
1478,606.0,606.0,528.0,4.0,4.0,4.0
1479,606.0,606.0,528.0,4.0,3.0,3.0
1480,606.0,606.0,528.0,4.0,4.0,4.0
1481,606.0,607.0,528.0,4.0,4.0,4.0
1482,607.0,606.0,528.0,4.0,4.0,4.0
1483,606.0,606.0,528.0,4.0,3.0,4.0
1484,606.0,606.0,528.0,4.0,4.0,4.0
1485,606.0,606.0,528.0,4.0,4.0,4.0
1486,606.0,607.0,528.0,4.0,5.0,4.0
1487,607.0,606.0,528.0,4.0,4.0,4.0
1488,606.0,606.0,528.0,4.0,4.0,4.0
1489,606.0,606.0,528.0,4.0,4.0,4.0
1490,606.0,606.0,528.0,4.0,4.0,4.0
1491,606.0,607.0,528.0,4.0,3.0,4.0
1492,607.0,606.0,528.0,4.0,4.0,4.0
1493,606.0,606.0,528.0,3.0,4.0,4.0
1494,606.0,607.0,528.0,4.0,5.0,4.0
1495,607.0,607.0,528.0,4.0,4.0,4.0
1496,607.0,606.0,528.0,4.0,3.0,4.0
1497,606.0,606.0,528.0,3.0,4.0,4.0
1498,606.0,606.0,528.0,4.0,4.0,4.0
1499,606.0,607.0,528.0,4.0,4.0,4.0
1500,607.0,606.0,528.0,3.0,4.0,4.0
1501,606.0,606.0,528.0,4.0,4.0,4.0
1502,606.0,606.0,528.0,4.0,3.0,4.0
1503,606.0,606.0,528.0,4.0,4.0,4.0
1504,606.0,606.0,528.0,4.0,4.0,4.0
1505,606.0,607.0,528.0,4.0,4.0,4.0
1506,607.0,606.0,528.0,4.0,4.0,4.0
1507,606.0,606.0,528.0,3.0,5.0,4.0
1508,606.0,606.0,528.0,4.0,4.0,4.0
1509,606.0,607.0,527.0,4.0,4.0,4.0
1510,607.0,606.0,528.0,3.0,4.0,4.0
1511,606.0,606.0,528.0,3.0,4.0,3.0
1512,606.0,606.0,528.0,4.0,3.0,4.0
1513,606.0,606.0,528.0,4.0,4.0,4.0
1514,606.0,606.0,528.0,3.0,4.0,4.0
1515,606.0,606.0,528.0,4.0,4.0,4.0
1516,606.0,607.0,529.0,4.0,3.0,4.0
1517,607.0,607.0,528.0,4.0,4.0,4.0
1518,607.0,606.0,528.0,4.0,4.0,4.0
1519,606.0,606.0,528.0,4.0,4.0,4.0
1520,606.0,606.0,528.0,4.0,3.0,5.0
1521,606.0,606.0,528.0,4.0,4.0,4.0
1522,606.0,606.0,528.0,4.0,3.0,4.0
1523,606.0,606.0,528.0,5.0,4.0,4.0
1524,606.0,606.0,528.0,4.0,4.0,4.0
1525,606.0,606.0,528.0,4.0,4.0,4.0
1526,606.0,606.0,528.0,4.0,4.0,4.0
1527,606.0,606.0,528.0,4.0,3.0,4.0
1528,606.0,607.0,528.0,3.0,3.0,4.0
1529,607.0,607.0,529.0,4.0,4.0,4.0
1530,607.0,608.0,529.0,4.0,4.0,4.0
1531,608.0,605.0,528.0,4.0,4.0,4.0
1532,605.0,605.0,527.0,5.0,4.0,5.0
1533,605.0,606.0,527.0,4.0,4.0,4.0
1534,606.0,608.0,528.0,4.0,4.0,4.0
1535,608.0,608.0,528.0,3.0,4.0,3.0
1536,608.0,607.0,528.0,4.0,4.0,4.0
1537,607.0,606.0,528.0,4.0,4.0,4.0
1538,606.0,605.0,529.0,5.0,4.0,4.0
1539,605.0,605.0,528.0,4.0,4.0,4.0
1540,605.0,606.0,528.0,4.0,4.0,4.0
1541,606.0,606.0,528.0,4.0,3.0,4.0
1542,606.0,606.0,528.0,4.0,4.0,5.0
1543,606.0,607.0,527.0,4.0,4.0,4.0
1544,607.0,606.0,528.0,4.0,4.0,4.0
1545,606.0,607.0,528.0,4.0,4.0,4.0
1546,607.0,607.0,528.0,4.0,4.0,4.0
1547,607.0,606.0,528.0,4.0,4.0,4.0
1548,606.0,606.0,528.0,4.0,4.0,4.0
1549,606.0,606.0,528.0,4.0,4.0,4.0
1550,606.0,606.0,529.0,4.0,4.0,5.0
1551,606.0,607.0,528.0,4.0,4.0,4.0
1552,607.0,607.0,528.0,4.0,4.0,5.0
1553,607.0,606.0,528.0,4.0,3.0,4.0
1554,606.0,607.0,528.0,4.0,4.0,4.0
1555,607.0,606.0,528.0,4.0,4.0,4.0
1556,606.0,606.0,528.0,5.0,4.0,4.0
1557,606.0,606.0,528.0,4.0,4.0,3.0
1558,606.0,606.0,528.0,5.0,4.0,5.0
1559,606.0,606.0,528.0,4.0,4.0,4.0
1560,606.0,606.0,528.0,4.0,4.0,4.0
1561,606.0,607.0,528.0,4.0,4.0,4.0
1562,607.0,607.0,528.0,4.0,4.0,4.0
1563,607.0,606.0,528.0,4.0,3.0,4.0
1564,606.0,606.0,528.0,4.0,3.0,4.0
1565,606.0,606.0,528.0,4.0,4.0,4.0
1566,606.0,606.0,528.0,4.0,4.0,4.0
1567,606.0,606.0,528.0,4.0,4.0,4.0
1568,606.0,606.0,527.0,4.0,4.0,4.0
1569,606.0,606.0,528.0,4.0,4.0,4.0
1570,606.0,607.0,528.0,4.0,4.0,4.0
1571,607.0,606.0,528.0,4.0,4.0,4.0
1572,606.0,606.0,528.0,5.0,4.0,4.0
1573,606.0,606.0,528.0,4.0,4.0,4.0
1574,606.0,606.0,528.0,4.0,4.0,4.0
1575,606.0,606.0,528.0,4.0,4.0,4.0
1576,606.0,606.0,528.0,4.0,4.0,4.0
1577,606.0,606.0,528.0,4.0,4.0,4.0
1578,606.0,606.0,528.0,4.0,4.0,4.0
1579,606.0,606.0,528.0,4.0,4.0,4.0
1580,606.0,606.0,528.0,5.0,4.0,4.0
1581,606.0,606.0,528.0,5.0,4.0,5.0
1582,606.0,606.0,528.0,4.0,4.0,4.0
1583,606.0,606.0,528.0,4.0,4.0,4.0
1584,606.0,607.0,528.0,4.0,5.0,3.0
1585,607.0,607.0,528.0,4.0,4.0,4.0
1586,607.0,607.0,528.0,4.0,4.0,4.0
1587,607.0,607.0,528.0,4.0,4.0,4.0
1588,607.0,606.0,528.0,4.0,4.0,4.0
1589,606.0,606.0,528.0,4.0,4.0,4.0
1590,606.0,606.0,528.0,3.0,4.0,4.0
1591,606.0,607.0,528.0,4.0,4.0,4.0
1592,607.0,606.0,528.0,4.0,3.0,4.0
1593,606.0,606.0,529.0,4.0,4.0,3.0
1594,606.0,606.0,528.0,4.0,3.0,4.0
1595,606.0,607.0,528.0,4.0,3.0,4.0
1596,607.0,607.0,528.0,4.0,4.0,4.0
1597,607.0,606.0,528.0,4.0,4.0,4.0
1598,606.0,606.0,528.0,4.0,4.0,4.0
1599,606.0,607.0,528.0,4.0,4.0,5.0
1600,607.0,606.0,528.0,4.0,4.0,4.0
1601,606.0,606.0,528.0,4.0,4.0,4.0
1602,606.0,606.0,528.0,5.0,4.0,4.0
1603,606.0,606.0,528.0,4.0,4.0,4.0
1604,606.0,606.0,528.0,4.0,4.0,4.0
1605,606.0,606.0,528.0,4.0,4.0,4.0
1606,606.0,606.0,528.0,4.0,4.0,4.0
1607,606.0,606.0,528.0,5.0,4.0,4.0
1608,606.0,606.0,528.0,4.0,4.0,4.0
1609,606.0,606.0,528.0,4.0,4.0,4.0
1610,606.0,607.0,527.0,4.0,4.0,3.0
1611,607.0,606.0,528.0,4.0,4.0,4.0
1612,606.0,606.0,528.0,4.0,4.0,4.0
1613,606.0,607.0,528.0,4.0,4.0,3.0
1614,607.0,606.0,528.0,4.0,4.0,4.0
1615,606.0,607.0,528.0,5.0,3.0,4.0
1616,607.0,607.0,528.0,4.0,4.0,4.0
1617,607.0,606.0,528.0,4.0,4.0,4.0
1618,606.0,607.0,527.0,3.0,4.0,4.0
1619,607.0,607.0,527.0,4.0,3.0,4.0
1620,607.0,607.0,528.0,4.0,4.0,4.0
1621,607.0,607.0,528.0,4.0,3.0,4.0
1622,607.0,606.0,528.0,4.0,4.0,4.0
1623,606.0,607.0,528.0,4.0,4.0,4.0
1624,607.0,607.0,527.0,5.0,3.0,4.0
1625,607.0,606.0,528.0,4.0,4.0,4.0
1626,606.0,606.0,528.0,4.0,4.0,4.0
1627,606.0,606.0,528.0,4.0,4.0,4.0
1628,606.0,606.0,528.0,4.0,4.0,4.0
1629,606.0,606.0,529.0,3.0,4.0,4.0
1630,606.0,606.0,528.0,4.0,4.0,4.0
1631,606.0,606.0,528.0,6.0,4.0,4.0
1632,606.0,606.0,528.0,4.0,4.0,4.0
1633,606.0,606.0,528.0,4.0,3.0,5.0
1634,606.0,606.0,528.0,4.0,4.0,4.0
1635,606.0,607.0,528.0,4.0,4.0,4.0
1636,607.0,607.0,528.0,4.0,4.0,4.0
1637,607.0,606.0,528.0,4.0,4.0,4.0
1638,606.0,606.0,528.0,4.0,4.0,4.0
1639,606.0,606.0,528.0,4.0,3.0,4.0
1640,606.0,607.0,528.0,4.0,4.0,4.0
1641,607.0,607.0,528.0,4.0,4.0,4.0
1642,607.0,607.0,528.0,4.0,5.0,4.0
1643,607.0,607.0,527.0,4.0,4.0,4.0
1644,607.0,607.0,528.0,3.0,4.0,4.0
1645,607.0,607.0,528.0,4.0,4.0,4.0
1646,607.0,607.0,528.0,4.0,4.0,4.0
1647,607.0,607.0,528.0,4.0,4.0,4.0
1648,607.0,606.0,528.0,4.0,4.0,4.0
1649,606.0,606.0,528.0,4.0,4.0,4.0
1650,606.0,606.0,528.0,4.0,4.0,4.0
1651,606.0,606.0,528.0,3.0,3.0,4.0
1652,606.0,606.0,528.0,4.0,3.0,4.0
1653,606.0,606.0,529.0,4.0,4.0,4.0
1654,606.0,606.0,528.0,4.0,3.0,4.0
1655,606.0,607.0,529.0,4.0,4.0,4.0
1656,607.0,606.0,528.0,4.0,4.0,4.0
1657,606.0,606.0,528.0,4.0,4.0,4.0
1658,606.0,606.0,528.0,4.0,4.0,4.0
1659,606.0,606.0,528.0,4.0,3.0,4.0
1660,606.0,606.0,528.0,4.0,4.0,4.0
1661,606.0,606.0,528.0,4.0,4.0,4.0
1662,606.0,606.0,528.0,4.0,4.0,4.0
1663,606.0,606.0,528.0,4.0,4.0,4.0
1664,606.0,606.0,528.0,4.0,4.0,3.0
1665,606.0,606.0,528.0,4.0,4.0,4.0
1666,606.0,606.0,528.0,4.0,4.0,4.0
1667,606.0,607.0,528.0,4.0,4.0,4.0
1668,607.0,606.0,528.0,4.0,4.0,4.0
1669,606.0,606.0,528.0,4.0,4.0,4.0
1670,606.0,607.0,528.0,4.0,4.0,4.0
1671,607.0,606.0,528.0,4.0,4.0,4.0
1672,606.0,606.0,528.0,4.0,3.0,4.0
1673,606.0,606.0,528.0,4.0,3.0,4.0
1674,606.0,606.0,529.0,4.0,4.0,4.0
1675,606.0,607.0,529.0,4.0,4.0,4.0
1676,607.0,606.0,529.0,4.0,4.0,4.0
1677,606.0,606.0,528.0,4.0,3.0,4.0
1678,606.0,606.0,528.0,4.0,4.0,4.0
1679,606.0,606.0,528.0,4.0,4.0,4.0
1680,606.0,606.0,528.0,5.0,4.0,5.0
1681,606.0,606.0,528.0,4.0,4.0,4.0
1682,606.0,606.0,529.0,4.0,4.0,5.0
1683,606.0,606.0,528.0,4.0,4.0,4.0
1684,606.0,606.0,528.0,4.0,4.0,4.0
1685,606.0,606.0,529.0,4.0,4.0,4.0
1686,606.0,606.0,528.0,4.0,4.0,4.0
1687,606.0,606.0,528.0,4.0,4.0,4.0
1688,606.0,607.0,528.0,4.0,4.0,4.0
1689,607.0,606.0,528.0,4.0,4.0,4.0
1690,606.0,606.0,528.0,4.0,4.0,3.0
1691,606.0,606.0,528.0,5.0,4.0,4.0
1692,606.0,606.0,529.0,4.0,4.0,4.0
1693,606.0,606.0,528.0,4.0,4.0,5.0
1694,606.0,606.0,528.0,4.0,4.0,4.0
1695,606.0,606.0,529.0,4.0,4.0,4.0
1696,606.0,607.0,529.0,4.0,4.0,4.0
1697,607.0,606.0,529.0,4.0,3.0,4.0
1698,606.0,606.0,529.0,4.0,4.0,4.0
1699,606.0,607.0,529.0,4.0,4.0,4.0
1700,607.0,606.0,529.0,4.0,4.0,4.0
1701,606.0,606.0,529.0,4.0,4.0,4.0
1702,606.0,606.0,529.0,4.0,4.0,4.0
1703,606.0,606.0,528.0,5.0,4.0,4.0
1704,606.0,606.0,528.0,3.0,4.0,4.0
1705,606.0,606.0,528.0,4.0,4.0,4.0
1706,606.0,606.0,528.0,4.0,3.0,4.0
1707,606.0,606.0,528.0,3.0,4.0,4.0
1708,606.0,605.0,528.0,5.0,4.0,4.0
1709,605.0,606.0,528.0,4.0,3.0,5.0
1710,606.0,606.0,528.0,4.0,4.0,4.0
1711,606.0,605.0,529.0,4.0,4.0,4.0
1712,605.0,601.0,532.0,4.0,4.0,4.0
1713,601.0,614.0,527.0,4.0,4.0,4.0
1714,614.0,608.0,520.0,4.0,4.0,3.0
1715,608.0,607.0,527.0,4.0,4.0,4.0
1716,607.0,607.0,531.0,4.0,4.0,4.0
1717,607.0,604.0,529.0,5.0,4.0,4.0
1718,604.0,604.0,526.0,4.0,4.0,4.0
1719,604.0,605.0,526.0,4.0,4.0,4.0
1720,605.0,606.0,528.0,4.0,4.0,4.0
1721,606.0,607.0,528.0,4.0,4.0,4.0
1722,607.0,607.0,529.0,4.0,4.0,4.0
1723,607.0,606.0,528.0,4.0,4.0,4.0
1724,606.0,606.0,528.0,3.0,3.0,4.0
1725,606.0,606.0,528.0,4.0,3.0,4.0
1726,606.0,606.0,529.0,4.0,3.0,4.0
1727,606.0,606.0,528.0,3.0,4.0,5.0
1728,606.0,606.0,528.0,4.0,3.0,4.0
1729,606.0,606.0,528.0,4.0,3.0,4.0
1730,606.0,607.0,528.0,4.0,4.0,4.0
1731,607.0,606.0,528.0,4.0,4.0,5.0
1732,606.0,607.0,529.0,4.0,3.0,4.0
1733,607.0,606.0,528.0,4.0,4.0,4.0
1734,606.0,606.0,528.0,5.0,4.0,5.0
1735,606.0,606.0,528.0,4.0,4.0,4.0
1736,606.0,606.0,529.0,4.0,4.0,4.0
1737,606.0,606.0,528.0,4.0,4.0,4.0
1738,606.0,606.0,528.0,4.0,4.0,4.0
1739,606.0,606.0,528.0,4.0,4.0,4.0
1740,606.0,606.0,528.0,4.0,4.0,4.0
1741,606.0,606.0,528.0,4.0,4.0,4.0
1742,606.0,606.0,528.0,4.0,4.0,4.0
1743,606.0,607.0,528.0,4.0,3.0,4.0
1744,607.0,607.0,528.0,4.0,4.0,4.0
1745,607.0,606.0,528.0,4.0,4.0,4.0
1746,606.0,606.0,528.0,4.0,4.0,4.0
1747,606.0,606.0,528.0,4.0,4.0,4.0
1748,606.0,606.0,528.0,4.0,5.0,4.0
1749,606.0,606.0,528.0,4.0,4.0,4.0
1750,606.0,606.0,528.0,4.0,3.0,4.0
1751,606.0,606.0,528.0,4.0,4.0,4.0
1752,606.0,606.0,528.0,3.0,4.0,4.0
1753,606.0,606.0,528.0,4.0,4.0,4.0
1754,606.0,607.0,528.0,4.0,4.0,5.0
1755,607.0,606.0,529.0,4.0,4.0,4.0
1756,606.0,607.0,529.0,4.0,3.0,4.0
1757,607.0,607.0,528.0,4.0,4.0,4.0
1758,607.0,607.0,529.0,4.0,5.0,4.0
1759,607.0,607.0,528.0,4.0,4.0,4.0
1760,607.0,606.0,528.0,3.0,3.0,4.0
1761,606.0,606.0,529.0,4.0,4.0,4.0
1762,606.0,606.0,528.0,4.0,4.0,4.0
1763,606.0,606.0,528.0,4.0,4.0,4.0
1764,606.0,606.0,529.0,4.0,4.0,4.0
1765,606.0,606.0,528.0,4.0,4.0,4.0
1766,606.0,606.0,528.0,4.0,4.0,4.0
1767,606.0,606.0,528.0,4.0,4.0,4.0
1768,606.0,607.0,528.0,4.0,4.0,3.0
1769,607.0,606.0,528.0,4.0,4.0,4.0
1770,606.0,607.0,528.0,4.0,4.0,4.0
1771,607.0,607.0,528.0,3.0,3.0,3.0
1772,607.0,606.0,528.0,4.0,4.0,4.0
1773,606.0,606.0,528.0,4.0,4.0,4.0
1774,606.0,607.0,529.0,4.0,3.0,4.0
1775,607.0,607.0,529.0,4.0,4.0,4.0
1776,607.0,606.0,528.0,4.0,4.0,4.0
1777,606.0,607.0,528.0,3.0,4.0,4.0
1778,607.0,606.0,528.0,4.0,4.0,4.0
1779,606.0,606.0,528.0,5.0,3.0,5.0
1780,606.0,606.0,529.0,4.0,4.0,4.0
1781,606.0,606.0,528.0,4.0,4.0,4.0
1782,606.0,606.0,528.0,4.0,4.0,4.0
1783,606.0,606.0,528.0,4.0,4.0,4.0
1784,606.0,606.0,528.0,5.0,4.0,4.0
1785,606.0,607.0,528.0,4.0,4.0,4.0
1786,607.0,606.0,529.0,4.0,4.0,4.0
1787,606.0,606.0,528.0,4.0,4.0,4.0
1788,606.0,606.0,528.0,4.0,4.0,5.0
1789,606.0,606.0,528.0,4.0,4.0,4.0
1790,606.0,606.0,529.0,4.0,4.0,4.0
1791,606.0,606.0,528.0,4.0,3.0,4.0
1792,606.0,607.0,528.0,4.0,4.0,5.0
1793,607.0,607.0,528.0,4.0,4.0,3.0
1794,607.0,606.0,529.0,4.0,4.0,4.0
1795,606.0,607.0,529.0,4.0,4.0,4.0
1796,607.0,607.0,529.0,4.0,4.0,4.0
1797,607.0,606.0,528.0,4.0,4.0,4.0
1798,606.0,606.0,528.0,4.0,4.0,4.0
1799,606.0,606.0,529.0,4.0,4.0,4.0
1800,606.0,606.0,528.0,4.0,4.0,4.0
1801,606.0,606.0,528.0,4.0,4.0,4.0
1802,606.0,606.0,528.0,4.0,4.0,5.0
1803,606.0,606.0,528.0,4.0,4.0,4.0
1804,606.0,606.0,528.0,4.0,4.0,4.0
1805,606.0,606.0,528.0,4.0,4.0,4.0
1806,606.0,606.0,528.0,4.0,4.0,4.0
1807,606.0,606.0,528.0,4.0,3.0,4.0
1808,606.0,606.0,529.0,4.0,4.0,4.0
1809,606.0,606.0,528.0,4.0,4.0,4.0
1810,606.0,606.0,529.0,4.0,4.0,4.0
1811,606.0,606.0,528.0,4.0,4.0,3.0
1812,606.0,606.0,528.0,4.0,4.0,5.0
1813,606.0,606.0,529.0,4.0,4.0,4.0
1814,606.0,606.0,528.0,4.0,4.0,6.0
1815,606.0,606.0,528.0,4.0,4.0,4.0
1816,606.0,606.0,528.0,4.0,3.0,4.0
1817,606.0,606.0,529.0,3.0,4.0,4.0
1818,606.0,606.0,529.0,4.0,4.0,4.0
1819,606.0,606.0,529.0,4.0,4.0,4.0
1820,606.0,606.0,529.0,4.0,4.0,3.0
1821,606.0,606.0,528.0,4.0,4.0,4.0
1822,606.0,606.0,529.0,4.0,5.0,4.0
1823,606.0,606.0,528.0,4.0,4.0,4.0
1824,606.0,607.0,529.0,4.0,4.0,4.0
1825,607.0,607.0,528.0,5.0,4.0,5.0
1826,607.0,607.0,529.0,4.0,4.0,4.0
1827,607.0,606.0,529.0,4.0,4.0,4.0
1828,606.0,606.0,529.0,4.0,4.0,5.0
1829,606.0,606.0,528.0,4.0,4.0,4.0
1830,606.0,606.0,528.0,5.0,4.0,4.0
1831,606.0,606.0,528.0,4.0,3.0,4.0
1832,606.0,606.0,528.0,4.0,4.0,4.0
1833,606.0,606.0,528.0,4.0,4.0,4.0
1834,606.0,606.0,528.0,4.0,4.0,4.0
1835,606.0,606.0,528.0,4.0,4.0,4.0
1836,606.0,606.0,528.0,4.0,3.0,3.0
1837,606.0,606.0,529.0,4.0,4.0,4.0
1838,606.0,607.0,528.0,4.0,4.0,4.0
1839,607.0,606.0,528.0,4.0,4.0,4.0
1840,606.0,606.0,529.0,5.0,3.0,4.0
1841,606.0,606.0,529.0,4.0,4.0,4.0
1842,606.0,606.0,529.0,4.0,4.0,4.0
1843,606.0,606.0,528.0,4.0,4.0,4.0
1844,606.0,606.0,528.0,4.0,4.0,4.0
1845,606.0,606.0,528.0,4.0,4.0,4.0
1846,606.0,607.0,529.0,3.0,4.0,3.0
1847,607.0,606.0,529.0,4.0,4.0,4.0
1848,606.0,607.0,529.0,4.0,4.0,5.0
1849,607.0,606.0,528.0,3.0,4.0,4.0
1850,606.0,606.0,528.0,4.0,4.0,4.0
1851,606.0,606.0,528.0,4.0,3.0,4.0
1852,606.0,606.0,528.0,4.0,4.0,4.0
1853,606.0,606.0,528.0,4.0,5.0,4.0
1854,606.0,606.0,528.0,4.0,3.0,4.0
1855,606.0,606.0,528.0,3.0,4.0,4.0
1856,606.0,606.0,528.0,4.0,4.0,2.0
1857,606.0,606.0,528.0,4.0,4.0,4.0
1858,606.0,607.0,528.0,4.0,4.0,4.0
1859,607.0,607.0,528.0,4.0,4.0,4.0
1860,607.0,606.0,528.0,4.0,4.0,4.0
1861,606.0,606.0,528.0,4.0,3.0,4.0
1862,606.0,606.0,528.0,4.0,4.0,4.0
1863,606.0,606.0,528.0,4.0,4.0,4.0
1864,606.0,606.0,528.0,5.0,4.0,4.0
1865,606.0,606.0,528.0,4.0,4.0,4.0
1866,606.0,607.0,528.0,4.0,4.0,3.0
1867,607.0,606.0,528.0,4.0,3.0,4.0
1868,606.0,606.0,528.0,4.0,4.0,4.0
1869,606.0,606.0,528.0,4.0,4.0,4.0
1870,606.0,606.0,528.0,4.0,4.0,4.0
1871,606.0,605.0,528.0,4.0,4.0,3.0
1872,605.0,606.0,528.0,4.0,3.0,4.0
1873,606.0,606.0,528.0,4.0,4.0,4.0
1874,606.0,606.0,529.0,4.0,3.0,4.0
1875,606.0,606.0,528.0,4.0,4.0,4.0
1876,606.0,606.0,529.0,4.0,4.0,4.0
1877,606.0,606.0,529.0,4.0,4.0,4.0
1878,606.0,606.0,529.0,4.0,4.0,4.0
1879,606.0,606.0,528.0,4.0,4.0,4.0
1880,606.0,606.0,528.0,4.0,3.0,4.0
1881,606.0,606.0,529.0,4.0,4.0,4.0
1882,606.0,606.0,529.0,5.0,4.0,4.0
1883,606.0,606.0,529.0,4.0,4.0,4.0
1884,606.0,607.0,529.0,4.0,4.0,5.0
1885,607.0,607.0,529.0,4.0,4.0,4.0
1886,607.0,607.0,529.0,4.0,4.0,4.0
1887,607.0,607.0,528.0,4.0,4.0,5.0
1888,607.0,607.0,528.0,4.0,4.0,4.0
1889,607.0,607.0,529.0,4.0,4.0,4.0
1890,607.0,606.0,528.0,4.0,4.0,3.0
1891,606.0,606.0,528.0,4.0,4.0,4.0
1892,606.0,606.0,529.0,4.0,4.0,4.0
1893,606.0,606.0,528.0,3.0,4.0,3.0
1894,606.0,606.0,528.0,4.0,4.0,4.0
1895,606.0,606.0,528.0,4.0,4.0,4.0
1896,606.0,606.0,528.0,4.0,4.0,4.0
1897,606.0,606.0,528.0,4.0,4.0,4.0
1898,606.0,606.0,528.0,4.0,3.0,4.0
1899,606.0,607.0,528.0,4.0,4.0,4.0
1900,607.0,606.0,529.0,4.0,3.0,4.0
1901,606.0,607.0,528.0,4.0,3.0,4.0
1902,607.0,606.0,529.0,4.0,4.0,4.0
1903,606.0,606.0,529.0,3.0,4.0,4.0
1904,606.0,606.0,529.0,4.0,4.0,4.0
1905,606.0,606.0,528.0,4.0,4.0,5.0
1906,606.0,606.0,528.0,5.0,4.0,4.0
1907,606.0,606.0,528.0,4.0,4.0,3.0
1908,606.0,606.0,528.0,4.0,3.0,4.0
1909,606.0,606.0,528.0,4.0,4.0,4.0
1910,606.0,607.0,528.0,4.0,4.0,1.0
1911,607.0,606.0,528.0,4.0,3.0,4.0
1912,606.0,606.0,528.0,4.0,4.0,4.0
1913,606.0,607.0,528.0,4.0,4.0,3.0
1914,607.0,607.0,528.0,3.0,4.0,4.0
1915,607.0,606.0,528.0,4.0,4.0,4.0
1916,606.0,606.0,528.0,4.0,4.0,4.0
1917,606.0,606.0,529.0,5.0,4.0,4.0
1918,606.0,606.0,529.0,4.0,3.0,4.0
1919,606.0,606.0,528.0,4.0,4.0,4.0
1920,606.0,605.0,528.0,4.0,3.0,4.0
1921,605.0,605.0,528.0,4.0,4.0,4.0
1922,605.0,606.0,528.0,4.0,3.0,4.0
1923,606.0,606.0,528.0,4.0,4.0,3.0
1924,606.0,606.0,528.0,4.0,3.0,4.0
1925,606.0,606.0,528.0,4.0,4.0,4.0
1926,606.0,607.0,528.0,4.0,4.0,4.0
1927,607.0,606.0,528.0,4.0,4.0,4.0
1928,606.0,606.0,529.0,4.0,4.0,4.0
1929,606.0,606.0,529.0,4.0,3.0,5.0
1930,606.0,606.0,528.0,3.0,4.0,4.0
1931,606.0,606.0,529.0,4.0,4.0,4.0
1932,606.0,606.0,529.0,4.0,4.0,4.0
1933,606.0,606.0,529.0,4.0,4.0,4.0
1934,606.0,606.0,529.0,5.0,5.0,4.0
1935,606.0,606.0,529.0,4.0,4.0,4.0
1936,606.0,606.0,528.0,5.0,4.0,4.0
1937,606.0,606.0,529.0,4.0,4.0,4.0
1938,606.0,606.0,529.0,4.0,4.0,4.0
1939,606.0,606.0,529.0,4.0,4.0,4.0
1940,606.0,606.0,528.0,4.0,4.0,4.0
1941,606.0,606.0,528.0,4.0,4.0,4.0
1942,606.0,606.0,528.0,4.0,4.0,3.0
1943,606.0,606.0,528.0,4.0,4.0,4.0
1944,606.0,606.0,528.0,4.0,4.0,4.0
1945,606.0,607.0,528.0,4.0,4.0,4.0
1946,607.0,607.0,529.0,4.0,4.0,4.0
1947,607.0,607.0,528.0,4.0,4.0,3.0
1948,607.0,606.0,528.0,4.0,4.0,4.0
1949,606.0,606.0,528.0,3.0,4.0,4.0
1950,606.0,606.0,527.0,4.0,4.0,4.0
1951,606.0,608.0,527.0,4.0,4.0,4.0
1952,608.0,607.0,528.0,3.0,4.0,4.0
1953,607.0,606.0,528.0,4.0,4.0,4.0
1954,606.0,606.0,528.0,4.0,4.0,4.0
1955,606.0,606.0,528.0,4.0,3.0,4.0
1956,606.0,607.0,528.0,4.0,4.0,4.0
1957,607.0,606.0,528.0,3.0,4.0,4.0
1958,606.0,607.0,528.0,4.0,4.0,4.0
1959,607.0,606.0,528.0,4.0,4.0,4.0
1960,606.0,607.0,528.0,5.0,4.0,4.0
1961,607.0,607.0,528.0,4.0,3.0,4.0
1962,607.0,606.0,528.0,4.0,4.0,4.0
1963,606.0,606.0,528.0,3.0,3.0,3.0
1964,606.0,606.0,528.0,4.0,4.0,4.0
1965,606.0,606.0,528.0,5.0,4.0,4.0
1966,606.0,606.0,528.0,4.0,4.0,4.0
1967,606.0,606.0,529.0,5.0,4.0,4.0
1968,606.0,606.0,528.0,4.0,4.0,4.0
1969,606.0,606.0,528.0,4.0,4.0,4.0
1970,606.0,606.0,529.0,4.0,3.0,4.0
1971,606.0,606.0,528.0,4.0,4.0,4.0
1972,606.0,606.0,528.0,4.0,4.0,5.0
1973,606.0,606.0,529.0,4.0,4.0,4.0
1974,606.0,606.0,529.0,4.0,4.0,4.0
1975,606.0,606.0,529.0,4.0,4.0,3.0
1976,606.0,606.0,529.0,3.0,4.0,4.0
1977,606.0,606.0,528.0,4.0,4.0,4.0
1978,606.0,607.0,529.0,4.0,4.0,4.0
1979,607.0,606.0,529.0,4.0,4.0,4.0
1980,606.0,606.0,528.0,4.0,3.0,4.0
1981,606.0,606.0,528.0,4.0,4.0,4.0
1982,606.0,606.0,528.0,4.0,4.0,4.0
1983,606.0,606.0,528.0,4.0,4.0,4.0
1984,606.0,606.0,528.0,3.0,4.0,4.0
1985,606.0,606.0,528.0,3.0,4.0,4.0
1986,606.0,606.0,528.0,4.0,4.0,4.0
1987,606.0,606.0,528.0,4.0,4.0,4.0
1988,606.0,607.0,527.0,4.0,3.0,4.0
1989,607.0,606.0,528.0,3.0,4.0,4.0
1990,606.0,607.0,528.0,4.0,4.0,4.0
1991,607.0,607.0,528.0,4.0,4.0,4.0
1992,607.0,607.0,528.0,4.0,4.0,3.0
1993,607.0,607.0,529.0,4.0,3.0,4.0
1994,607.0,606.0,529.0,4.0,3.0,4.0
1995,606.0,606.0,528.0,4.0,4.0,4.0
1996,606.0,606.0,528.0,4.0,3.0,3.0
1997,606.0,606.0,528.0,4.0,3.0,4.0
1998,606.0,606.0,528.0,4.0,4.0,4.0
1999,606.0,606.0,528.0,4.0,4.0,4.0
2000,606.0,605.0,528.0,4.0,4.0,4.0
2001,605.0,606.0,528.0,4.0,4.0,5.0
2002,606.0,606.0,528.0,5.0,5.0,4.0
2003,606.0,606.0,528.0,4.0,4.0,4.0
2004,606.0,606.0,528.0,3.0,4.0,4.0
2005,606.0,606.0,529.0,4.0,4.0,4.0
2006,606.0,606.0,529.0,4.0,3.0,4.0
2007,606.0,606.0,528.0,4.0,3.0,3.0
2008,606.0,606.0,528.0,4.0,4.0,4.0
2009,606.0,606.0,529.0,4.0,4.0,5.0
2010,606.0,606.0,528.0,3.0,4.0,4.0
2011,606.0,606.0,528.0,4.0,4.0,4.0
2012,606.0,606.0,529.0,3.0,3.0,3.0
2013,606.0,606.0,529.0,4.0,4.0,4.0
2014,606.0,606.0,528.0,4.0,4.0,4.0
2015,606.0,606.0,528.0,4.0,4.0,4.0
2016,606.0,606.0,528.0,4.0,4.0,4.0
2017,606.0,606.0,528.0,4.0,4.0,4.0
2018,606.0,606.0,528.0,4.0,4.0,4.0
2019,606.0,606.0,528.0,4.0,0.0,4.0
2020,606.0,607.0,528.0,4.0,3.0,4.0
2021,607.0,606.0,528.0,4.0,4.0,4.0
2022,606.0,606.0,528.0,4.0,3.0,4.0
2023,606.0,606.0,528.0,4.0,4.0,4.0
2024,606.0,606.0,528.0,3.0,4.0,3.0
2025,606.0,606.0,528.0,4.0,4.0,4.0
2026,606.0,606.0,528.0,4.0,4.0,4.0
2027,606.0,606.0,528.0,4.0,4.0,4.0
2028,606.0,606.0,528.0,3.0,4.0,4.0
2029,606.0,606.0,529.0,4.0,4.0,4.0
2030,606.0,607.0,529.0,4.0,4.0,4.0
2031,607.0,606.0,528.0,4.0,4.0,4.0
2032,606.0,606.0,529.0,4.0,4.0,4.0
2033,606.0,606.0,529.0,4.0,4.0,4.0
2034,606.0,606.0,529.0,4.0,4.0,4.0
2035,606.0,607.0,529.0,3.0,3.0,4.0
2036,607.0,606.0,529.0,4.0,4.0,4.0
2037,606.0,606.0,528.0,5.0,4.0,4.0
2038,606.0,606.0,528.0,4.0,4.0,4.0
2039,606.0,606.0,528.0,4.0,4.0,5.0
2040,606.0,606.0,528.0,4.0,4.0,4.0
2041,606.0,606.0,528.0,3.0,4.0,4.0
2042,606.0,606.0,528.0,4.0,4.0,3.0
2043,606.0,606.0,528.0,3.0,4.0,4.0
2044,606.0,606.0,528.0,4.0,4.0,4.0
2045,606.0,606.0,528.0,4.0,4.0,4.0
2046,606.0,606.0,528.0,4.0,4.0,4.0
2047,606.0,606.0,528.0,4.0,4.0,4.0
2048,606.0,606.0,529.0,4.0,4.0,4.0
2049,606.0,606.0,529.0,4.0,3.0,4.0
2050,606.0,606.0,528.0,4.0,4.0,4.0
2051,606.0,606.0,529.0,4.0,4.0,4.0
2052,606.0,606.0,529.0,4.0,4.0,6.0
2053,606.0,606.0,529.0,4.0,4.0,4.0
2054,606.0,606.0,529.0,4.0,4.0,4.0
2055,606.0,606.0,529.0,4.0,4.0,4.0
2056,606.0,606.0,528.0,4.0,4.0,4.0
2057,606.0,606.0,528.0,4.0,4.0,4.0
2058,606.0,606.0,528.0,4.0,4.0,4.0
2059,606.0,606.0,529.0,4.0,4.0,4.0
2060,606.0,606.0,528.0,4.0,4.0,4.0
2061,606.0,606.0,528.0,3.0,4.0,4.0
2062,606.0,606.0,528.0,5.0,4.0,4.0
2063,606.0,606.0,528.0,5.0,3.0,5.0
2064,606.0,607.0,528.0,5.0,4.0,4.0
2065,607.0,607.0,529.0,4.0,4.0,4.0
2066,607.0,607.0,528.0,5.0,4.0,4.0
2067,607.0,607.0,528.0,4.0,4.0,3.0
2068,607.0,607.0,528.0,4.0,4.0,3.0
2069,607.0,606.0,528.0,4.0,3.0,4.0
2070,606.0,606.0,528.0,4.0,4.0,4.0
2071,606.0,606.0,528.0,4.0,4.0,4.0
2072,606.0,605.0,528.0,5.0,4.0,4.0
2073,605.0,606.0,528.0,4.0,4.0,4.0
2074,606.0,606.0,528.0,3.0,3.0,4.0
2075,606.0,606.0,528.0,4.0,4.0,4.0
2076,606.0,606.0,529.0,4.0,4.0,4.0
2077,606.0,606.0,528.0,4.0,4.0,4.0
2078,606.0,607.0,528.0,4.0,4.0,4.0
2079,607.0,607.0,528.0,4.0,4.0,4.0
2080,607.0,607.0,528.0,4.0,4.0,3.0
2081,607.0,607.0,528.0,3.0,4.0,4.0
2082,607.0,606.0,529.0,4.0,4.0,4.0
2083,606.0,606.0,528.0,4.0,4.0,4.0
2084,606.0,606.0,528.0,5.0,4.0,3.0
2085,606.0,606.0,528.0,4.0,4.0,4.0
2086,606.0,606.0,528.0,4.0,4.0,4.0
2087,606.0,606.0,528.0,4.0,4.0,4.0
2088,606.0,606.0,528.0,4.0,4.0,4.0
2089,606.0,606.0,529.0,3.0,4.0,4.0
2090,606.0,606.0,529.0,4.0,4.0,4.0
2091,606.0,606.0,529.0,4.0,4.0,4.0
2092,606.0,606.0,528.0,3.0,4.0,4.0
2093,606.0,606.0,529.0,4.0,4.0,4.0
2094,606.0,606.0,529.0,4.0,4.0,4.0
2095,606.0,606.0,529.0,4.0,4.0,4.0
2096,606.0,606.0,529.0,4.0,4.0,4.0
2097,606.0,606.0,529.0,4.0,4.0,5.0
2098,606.0,606.0,529.0,5.0,4.0,5.0
2099,606.0,606.0,529.0,4.0,3.0,4.0
2100,606.0,605.0,529.0,4.0,4.0,4.0
2101,605.0,605.0,528.0,4.0,4.0,4.0
2102,605.0,606.0,528.0,4.0,3.0,5.0
2103,606.0,606.0,529.0,4.0,4.0,4.0
2104,606.0,606.0,529.0,4.0,4.0,4.0
2105,606.0,606.0,528.0,4.0,4.0,4.0
2106,606.0,606.0,528.0,4.0,4.0,4.0
2107,606.0,606.0,528.0,3.0,4.0,4.0
2108,606.0,606.0,527.0,3.0,3.0,4.0
2109,606.0,606.0,528.0,4.0,4.0,4.0
2110,606.0,607.0,528.0,3.0,4.0,4.0
2111,607.0,606.0,528.0,4.0,4.0,4.0
2112,606.0,607.0,528.0,4.0,4.0,4.0
2113,607.0,606.0,528.0,4.0,3.0,5.0
2114,606.0,606.0,528.0,4.0,4.0,4.0
2115,606.0,606.0,528.0,3.0,4.0,4.0
2116,606.0,606.0,528.0,4.0,4.0,4.0
2117,606.0,606.0,528.0,4.0,3.0,4.0
2118,606.0,606.0,528.0,5.0,4.0,4.0
2119,606.0,607.0,528.0,4.0,4.0,4.0
2120,607.0,606.0,529.0,4.0,4.0,4.0
2121,606.0,606.0,529.0,4.0,4.0,4.0
2122,606.0,607.0,529.0,4.0,4.0,3.0
2123,607.0,607.0,529.0,5.0,4.0,4.0
2124,607.0,606.0,528.0,4.0,4.0,4.0
2125,606.0,607.0,528.0,4.0,3.0,3.0
2126,607.0,607.0,528.0,4.0,3.0,4.0
2127,607.0,606.0,529.0,4.0,4.0,4.0
2128,606.0,606.0,528.0,3.0,4.0,4.0
2129,606.0,606.0,528.0,4.0,3.0,4.0
2130,606.0,606.0,528.0,4.0,4.0,4.0
2131,606.0,606.0,527.0,4.0,3.0,3.0
2132,606.0,606.0,528.0,4.0,4.0,4.0
2133,606.0,607.0,528.0,3.0,4.0,4.0
2134,607.0,606.0,528.0,5.0,4.0,4.0
2135,606.0,606.0,529.0,4.0,4.0,5.0
2136,606.0,606.0,529.0,3.0,4.0,4.0
2137,606.0,606.0,529.0,4.0,4.0,4.0
2138,606.0,606.0,528.0,4.0,3.0,4.0
2139,606.0,607.0,528.0,4.0,4.0,4.0
2140,607.0,606.0,529.0,4.0,4.0,4.0
2141,606.0,606.0,529.0,3.0,4.0,4.0
2142,606.0,607.0,528.0,4.0,4.0,4.0
2143,607.0,606.0,528.0,4.0,3.0,4.0
2144,606.0,606.0,528.0,4.0,4.0,4.0
2145,606.0,606.0,529.0,4.0,3.0,4.0
2146,606.0,606.0,529.0,4.0,4.0,4.0
2147,606.0,606.0,529.0,4.0,4.0,4.0
2148,606.0,606.0,528.0,4.0,4.0,4.0
2149,606.0,606.0,528.0,4.0,4.0,4.0
2150,606.0,606.0,528.0,4.0,4.0,4.0
2151,606.0,606.0,528.0,4.0,4.0,4.0
2152,606.0,606.0,528.0,4.0,3.0,4.0
2153,606.0,606.0,528.0,4.0,4.0,4.0
2154,606.0,606.0,528.0,4.0,4.0,3.0
2155,606.0,606.0,528.0,4.0,4.0,4.0
2156,606.0,607.0,528.0,4.0,3.0,4.0
2157,607.0,606.0,528.0,3.0,4.0,4.0
2158,606.0,607.0,529.0,4.0,4.0,4.0
2159,607.0,606.0,528.0,4.0,4.0,4.0
2160,606.0,607.0,528.0,4.0,4.0,4.0
2161,607.0,606.0,528.0,4.0,4.0,4.0
2162,606.0,606.0,528.0,3.0,4.0,4.0
2163,606.0,606.0,529.0,3.0,4.0,4.0
2164,606.0,606.0,528.0,4.0,4.0,4.0
2165,606.0,606.0,529.0,4.0,4.0,4.0
2166,606.0,606.0,528.0,4.0,4.0,4.0
2167,606.0,606.0,529.0,5.0,4.0,4.0
2168,606.0,606.0,528.0,4.0,4.0,4.0
2169,606.0,606.0,529.0,4.0,3.0,4.0
2170,606.0,606.0,529.0,4.0,3.0,3.0
2171,606.0,606.0,528.0,4.0,4.0,4.0
2172,606.0,606.0,528.0,4.0,3.0,4.0
2173,606.0,606.0,529.0,3.0,4.0,4.0
2174,606.0,606.0,528.0,4.0,4.0,4.0
2175,606.0,607.0,528.0,4.0,4.0,4.0
2176,607.0,607.0,528.0,4.0,4.0,4.0
2177,607.0,606.0,528.0,5.0,3.0,4.0
2178,606.0,607.0,528.0,4.0,4.0,4.0
2179,607.0,607.0,529.0,4.0,4.0,3.0
2180,607.0,607.0,529.0,4.0,3.0,4.0
2181,607.0,606.0,529.0,4.0,4.0,4.0
2182,606.0,606.0,528.0,4.0,4.0,4.0
2183,606.0,606.0,528.0,4.0,3.0,4.0
2184,606.0,607.0,528.0,4.0,4.0,4.0
2185,607.0,606.0,529.0,3.0,4.0,5.0
2186,606.0,606.0,528.0,4.0,4.0,4.0
2187,606.0,606.0,528.0,4.0,4.0,4.0
2188,606.0,606.0,528.0,4.0,4.0,4.0
2189,606.0,606.0,528.0,4.0,4.0,4.0
2190,606.0,606.0,528.0,3.0,4.0,7.0
2191,606.0,606.0,528.0,4.0,3.0,4.0
2192,606.0,606.0,528.0,4.0,4.0,4.0
2193,606.0,606.0,528.0,3.0,4.0,3.0
2194,606.0,606.0,528.0,4.0,4.0,4.0
2195,606.0,607.0,528.0,4.0,4.0,4.0
2196,607.0,606.0,528.0,3.0,4.0,4.0
2197,606.0,606.0,528.0,4.0,4.0,4.0
2198,606.0,606.0,528.0,4.0,4.0,5.0
2199,606.0,606.0,528.0,3.0,3.0,4.0
2200,606.0,606.0,528.0,4.0,4.0,4.0
2201,606.0,606.0,528.0,4.0,4.0,5.0
2202,606.0,606.0,528.0,4.0,3.0,4.0
2203,606.0,606.0,528.0,4.0,4.0,4.0
2204,606.0,606.0,528.0,4.0,4.0,4.0
2205,606.0,606.0,528.0,4.0,4.0,4.0
2206,606.0,606.0,528.0,4.0,3.0,4.0
2207,606.0,607.0,527.0,4.0,4.0,4.0
2208,607.0,606.0,528.0,4.0,3.0,4.0
2209,606.0,607.0,528.0,3.0,5.0,4.0
2210,607.0,606.0,528.0,4.0,4.0,4.0
2211,606.0,606.0,528.0,4.0,3.0,4.0
2212,606.0,606.0,528.0,4.0,4.0,4.0
2213,606.0,606.0,528.0,4.0,4.0,5.0
2214,606.0,607.0,528.0,4.0,4.0,4.0
2215,607.0,606.0,528.0,4.0,4.0,4.0
2216,606.0,606.0,528.0,4.0,3.0,4.0
2217,606.0,606.0,529.0,3.0,4.0,4.0
2218,606.0,607.0,528.0,4.0,4.0,3.0
2219,607.0,606.0,529.0,3.0,4.0,3.0
2220,606.0,606.0,528.0,4.0,4.0,4.0
2221,606.0,606.0,528.0,4.0,4.0,4.0
2222,606.0,606.0,529.0,4.0,4.0,4.0
2223,606.0,606.0,529.0,4.0,4.0,4.0
2224,606.0,606.0,529.0,4.0,3.0,4.0
2225,606.0,606.0,529.0,4.0,4.0,4.0
2226,606.0,606.0,529.0,3.0,4.0,4.0
2227,606.0,606.0,529.0,4.0,4.0,4.0
2228,606.0,606.0,528.0,4.0,3.0,4.0
2229,606.0,607.0,529.0,4.0,4.0,4.0
2230,607.0,606.0,529.0,4.0,4.0,4.0
2231,606.0,606.0,529.0,4.0,3.0,4.0
2232,606.0,606.0,529.0,4.0,4.0,4.0
2233,606.0,606.0,528.0,4.0,3.0,4.0
2234,606.0,606.0,528.0,3.0,3.0,4.0
2235,606.0,606.0,529.0,4.0,4.0,4.0
2236,606.0,606.0,528.0,4.0,4.0,4.0
2237,606.0,606.0,528.0,5.0,4.0,4.0
2238,606.0,606.0,528.0,4.0,4.0,4.0
2239,606.0,607.0,528.0,3.0,4.0,4.0
2240,607.0,606.0,528.0,4.0,4.0,4.0
2241,606.0,606.0,528.0,4.0,3.0,4.0
2242,606.0,606.0,529.0,4.0,4.0,4.0
2243,606.0,607.0,528.0,3.0,4.0,4.0
2244,607.0,606.0,528.0,4.0,4.0,3.0
2245,606.0,607.0,529.0,4.0,4.0,4.0
2246,607.0,606.0,529.0,3.0,4.0,4.0
2247,606.0,606.0,529.0,4.0,4.0,4.0
2248,606.0,606.0,528.0,4.0,4.0,4.0
2249,606.0,606.0,528.0,4.0,4.0,4.0
2250,606.0,606.0,528.0,4.0,4.0,4.0
2251,606.0,606.0,528.0,4.0,4.0,4.0
2252,606.0,606.0,529.0,4.0,4.0,4.0
2253,606.0,606.0,529.0,3.0,4.0,3.0
2254,606.0,606.0,529.0,3.0,4.0,4.0
2255,606.0,606.0,529.0,4.0,3.0,4.0
2256,606.0,606.0,528.0,4.0,4.0,4.0
2257,606.0,606.0,528.0,4.0,4.0,4.0
2258,606.0,606.0,529.0,4.0,4.0,4.0
2259,606.0,607.0,528.0,5.0,4.0,4.0
2260,607.0,606.0,528.0,4.0,3.0,4.0
2261,606.0,607.0,528.0,6.0,4.0,4.0
2262,607.0,606.0,528.0,4.0,4.0,4.0
2263,606.0,606.0,528.0,4.0,4.0,4.0
2264,606.0,606.0,529.0,4.0,4.0,4.0
2265,606.0,606.0,529.0,4.0,3.0,4.0
2266,606.0,606.0,529.0,4.0,4.0,4.0
2267,606.0,606.0,530.0,4.0,4.0,4.0
2268,606.0,606.0,530.0,4.0,3.0,4.0
2269,606.0,604.0,530.0,4.0,4.0,4.0
2270,604.0,603.0,530.0,4.0,4.0,4.0
2271,603.0,603.0,531.0,4.0,4.0,4.0
2272,603.0,604.0,530.0,4.0,4.0,4.0
2273,604.0,605.0,530.0,4.0,4.0,4.0
2274,605.0,606.0,529.0,4.0,4.0,4.0
2275,606.0,607.0,528.0,4.0,4.0,4.0
2276,607.0,607.0,528.0,3.0,3.0,4.0
2277,607.0,607.0,528.0,4.0,4.0,4.0
2278,607.0,608.0,527.0,4.0,4.0,4.0
2279,608.0,608.0,527.0,4.0,3.0,4.0
2280,608.0,607.0,527.0,4.0,4.0,4.0
2281,607.0,606.0,526.0,4.0,4.0,4.0
2282,606.0,607.0,527.0,4.0,4.0,4.0
2283,607.0,607.0,527.0,4.0,3.0,4.0
2284,607.0,607.0,528.0,4.0,4.0,4.0
2285,607.0,607.0,527.0,4.0,4.0,4.0
2286,607.0,607.0,529.0,4.0,5.0,4.0
2287,607.0,607.0,529.0,4.0,4.0,4.0
2288,607.0,607.0,528.0,3.0,4.0,4.0
2289,607.0,606.0,529.0,3.0,4.0,4.0
2290,606.0,606.0,528.0,4.0,4.0,4.0
2291,606.0,606.0,529.0,4.0,4.0,3.0
2292,606.0,606.0,529.0,4.0,4.0,4.0
2293,606.0,606.0,529.0,3.0,4.0,4.0
2294,606.0,606.0,529.0,4.0,4.0,4.0
2295,606.0,606.0,530.0,4.0,3.0,4.0
2296,606.0,606.0,529.0,4.0,4.0,4.0
2297,606.0,606.0,529.0,4.0,4.0,4.0
2298,606.0,606.0,529.0,4.0,4.0,4.0
2299,606.0,606.0,530.0,4.0,4.0,4.0
2300,606.0,606.0,529.0,4.0,4.0,4.0
2301,606.0,606.0,530.0,4.0,4.0,4.0
2302,606.0,606.0,530.0,4.0,4.0,4.0
2303,606.0,606.0,529.0,4.0,4.0,4.0
2304,606.0,606.0,530.0,4.0,4.0,4.0
2305,606.0,606.0,529.0,4.0,4.0,4.0
2306,606.0,605.0,529.0,4.0,4.0,4.0
2307,605.0,606.0,529.0,4.0,4.0,4.0
2308,606.0,606.0,529.0,4.0,4.0,4.0
2309,606.0,606.0,529.0,5.0,4.0,4.0
2310,606.0,607.0,529.0,4.0,5.0,4.0
2311,607.0,607.0,529.0,4.0,4.0,4.0
2312,607.0,607.0,529.0,4.0,4.0,4.0
2313,607.0,606.0,530.0,4.0,4.0,4.0
2314,606.0,602.0,531.0,4.0,3.0,4.0
2315,602.0,603.0,523.0,4.0,4.0,4.0
2316,603.0,610.0,532.0,4.0,4.0,4.0
2317,610.0,610.0,534.0,4.0,4.0,4.0
2318,610.0,606.0,528.0,4.0,4.0,4.0
2319,606.0,605.0,526.0,4.0,4.0,3.0
2320,605.0,606.0,528.0,4.0,4.0,4.0
2321,606.0,607.0,531.0,4.0,4.0,4.0
2322,607.0,606.0,530.0,4.0,3.0,4.0
2323,606.0,606.0,529.0,2.0,4.0,4.0
2324,606.0,606.0,528.0,4.0,4.0,4.0
2325,606.0,606.0,528.0,4.0,4.0,5.0
2326,606.0,606.0,529.0,4.0,3.0,4.0
2327,606.0,606.0,528.0,4.0,3.0,4.0
2328,606.0,606.0,528.0,4.0,5.0,5.0
2329,606.0,607.0,528.0,4.0,4.0,4.0
2330,607.0,606.0,528.0,4.0,4.0,4.0
2331,606.0,606.0,528.0,4.0,4.0,4.0
2332,606.0,606.0,528.0,4.0,4.0,4.0
2333,606.0,606.0,528.0,4.0,3.0,4.0
2334,606.0,606.0,528.0,4.0,4.0,4.0
2335,606.0,606.0,528.0,3.0,4.0,4.0
2336,606.0,606.0,528.0,3.0,4.0,4.0
2337,606.0,606.0,529.0,4.0,4.0,4.0
2338,606.0,607.0,528.0,3.0,4.0,4.0
2339,607.0,607.0,528.0,4.0,3.0,4.0
2340,607.0,607.0,528.0,4.0,4.0,4.0
2341,607.0,606.0,527.0,4.0,4.0,4.0
2342,606.0,606.0,528.0,4.0,4.0,4.0
2343,606.0,607.0,527.0,4.0,4.0,4.0
2344,607.0,607.0,528.0,4.0,4.0,4.0
2345,607.0,606.0,527.0,4.0,4.0,4.0
2346,606.0,607.0,528.0,4.0,4.0,4.0
2347,607.0,607.0,528.0,4.0,3.0,4.0
2348,607.0,606.0,528.0,4.0,4.0,4.0
2349,606.0,607.0,528.0,5.0,4.0,4.0
2350,607.0,606.0,528.0,4.0,4.0,3.0
2351,606.0,607.0,528.0,4.0,4.0,4.0
2352,607.0,607.0,528.0,3.0,4.0,4.0
2353,607.0,607.0,528.0,4.0,3.0,4.0
2354,607.0,607.0,528.0,4.0,4.0,3.0
2355,607.0,606.0,527.0,4.0,4.0,4.0
2356,606.0,606.0,528.0,4.0,4.0,4.0
2357,606.0,606.0,528.0,4.0,4.0,4.0
2358,606.0,606.0,528.0,4.0,3.0,5.0
2359,606.0,606.0,528.0,4.0,3.0,4.0
2360,606.0,606.0,528.0,3.0,2.0,4.0
2361,606.0,607.0,529.0,4.0,4.0,5.0
2362,607.0,607.0,529.0,3.0,4.0,4.0
2363,607.0,608.0,529.0,4.0,4.0,4.0
2364,608.0,608.0,529.0,4.0,3.0,4.0
2365,608.0,608.0,529.0,4.0,4.0,4.0
2366,608.0,607.0,529.0,4.0,4.0,4.0
2367,607.0,606.0,529.0,4.0,4.0,4.0
2368,606.0,606.0,529.0,4.0,4.0,4.0
2369,606.0,605.0,529.0,4.0,4.0,4.0
2370,605.0,604.0,529.0,4.0,4.0,4.0
2371,604.0,605.0,529.0,4.0,4.0,4.0
2372,605.0,605.0,528.0,4.0,3.0,4.0
2373,605.0,606.0,529.0,4.0,4.0,4.0
2374,606.0,606.0,529.0,4.0,3.0,4.0
2375,606.0,605.0,529.0,4.0,4.0,4.0
2376,605.0,605.0,529.0,4.0,4.0,4.0
2377,605.0,606.0,529.0,4.0,3.0,4.0
2378,606.0,606.0,530.0,4.0,4.0,4.0
2379,606.0,606.0,530.0,4.0,4.0,4.0
2380,606.0,605.0,529.0,4.0,4.0,4.0
2381,605.0,606.0,529.0,4.0,4.0,4.0
2382,606.0,606.0,530.0,4.0,4.0,5.0
2383,606.0,606.0,529.0,4.0,4.0,4.0
2384,606.0,606.0,528.0,5.0,4.0,4.0
2385,606.0,605.0,528.0,4.0,4.0,4.0
2386,605.0,606.0,528.0,4.0,3.0,4.0
2387,606.0,607.0,528.0,3.0,4.0,4.0
2388,607.0,607.0,529.0,4.0,4.0,4.0
2389,607.0,607.0,528.0,4.0,4.0,4.0
2390,607.0,606.0,527.0,5.0,4.0,3.0
2391,606.0,606.0,527.0,4.0,4.0,4.0
2392,606.0,608.0,527.0,4.0,4.0,4.0
2393,608.0,610.0,529.0,5.0,4.0,4.0
2394,610.0,606.0,528.0,4.0,4.0,4.0
2395,606.0,604.0,527.0,4.0,3.0,4.0
2396,604.0,604.0,525.0,4.0,4.0,4.0
2397,604.0,606.0,527.0,4.0,4.0,4.0
2398,606.0,609.0,528.0,4.0,4.0,5.0
2399,609.0,609.0,527.0,4.0,4.0,4.0
2400,609.0,608.0,527.0,4.0,4.0,4.0
2401,608.0,606.0,528.0,4.0,4.0,4.0
2402,606.0,605.0,528.0,4.0,3.0,4.0
2403,605.0,605.0,529.0,4.0,4.0,4.0
2404,605.0,605.0,528.0,4.0,4.0,4.0
2405,605.0,606.0,528.0,4.0,4.0,5.0
2406,606.0,606.0,529.0,4.0,4.0,4.0
2407,606.0,608.0,529.0,4.0,4.0,4.0
2408,608.0,608.0,531.0,4.0,4.0,3.0
2409,608.0,605.0,528.0,4.0,4.0,4.0
2410,605.0,604.0,528.0,4.0,4.0,5.0
2411,604.0,606.0,529.0,3.0,4.0,4.0
2412,606.0,606.0,530.0,3.0,4.0,4.0
2413,606.0,606.0,531.0,4.0,4.0,4.0
2414,606.0,606.0,533.0,4.0,4.0,4.0
2415,606.0,604.0,530.0,4.0,4.0,4.0
2416,604.0,604.0,524.0,4.0,3.0,3.0
2417,604.0,607.0,526.0,4.0,4.0,4.0
2418,607.0,609.0,532.0,4.0,4.0,4.0
2419,609.0,606.0,532.0,4.0,4.0,4.0
2420,606.0,603.0,528.0,4.0,4.0,4.0
2421,603.0,603.0,526.0,3.0,3.0,4.0
2422,603.0,604.0,526.0,4.0,4.0,4.0
2423,604.0,606.0,527.0,4.0,3.0,4.0
2424,606.0,607.0,529.0,4.0,4.0,5.0
2425,607.0,607.0,529.0,4.0,4.0,4.0
2426,607.0,607.0,529.0,4.0,3.0,4.0
2427,607.0,607.0,529.0,4.0,4.0,4.0
2428,607.0,606.0,530.0,4.0,4.0,4.0
2429,606.0,606.0,530.0,4.0,5.0,4.0
2430,606.0,607.0,530.0,4.0,4.0,4.0
2431,607.0,607.0,529.0,4.0,4.0,4.0
2432,607.0,606.0,529.0,4.0,4.0,4.0
2433,606.0,606.0,529.0,4.0,4.0,4.0
2434,606.0,605.0,529.0,4.0,4.0,4.0
2435,605.0,605.0,528.0,4.0,4.0,4.0
2436,605.0,606.0,528.0,4.0,4.0,4.0
2437,606.0,606.0,529.0,4.0,4.0,4.0
2438,606.0,606.0,529.0,4.0,3.0,4.0
2439,606.0,606.0,529.0,4.0,3.0,4.0
2440,606.0,607.0,529.0,4.0,4.0,4.0
2441,607.0,607.0,529.0,4.0,3.0,4.0
2442,607.0,607.0,529.0,4.0,4.0,4.0
2443,607.0,606.0,529.0,4.0,4.0,4.0
2444,606.0,606.0,528.0,4.0,4.0,4.0
2445,606.0,606.0,528.0,4.0,4.0,4.0
2446,606.0,606.0,529.0,4.0,4.0,4.0
2447,606.0,606.0,528.0,4.0,3.0,5.0
2448,606.0,605.0,528.0,4.0,4.0,4.0
2449,605.0,606.0,528.0,4.0,4.0,4.0
2450,606.0,606.0,528.0,3.0,4.0,4.0
2451,606.0,606.0,529.0,4.0,5.0,3.0
2452,606.0,607.0,528.0,4.0,6.0,4.0
2453,607.0,607.0,528.0,4.0,6.0,4.0
2454,607.0,607.0,528.0,4.0,6.0,3.0
2455,607.0,609.0,530.0,4.0,6.0,4.0
2456,609.0,607.0,528.0,4.0,6.0,4.0
2457,607.0,605.0,528.0,3.0,6.0,4.0
2458,605.0,605.0,528.0,4.0,7.0,4.0
2459,605.0,606.0,527.0,4.0,6.0,5.0
2460,606.0,608.0,529.0,5.0,6.0,4.0
2461,608.0,607.0,528.0,4.0,6.0,4.0
2462,607.0,606.0,528.0,5.0,6.0,4.0
2463,606.0,606.0,528.0,5.0,6.0,4.0
2464,606.0,606.0,531.0,4.0,6.0,4.0
2465,606.0,606.0,532.0,4.0,6.0,4.0
2466,606.0,605.0,528.0,4.0,6.0,4.0
2467,605.0,606.0,525.0,4.0,6.0,4.0
2468,606.0,608.0,528.0,4.0,5.0,5.0
2469,608.0,608.0,531.0,4.0,6.0,4.0
2470,608.0,606.0,530.0,4.0,6.0,4.0
2471,606.0,605.0,529.0,4.0,6.0,4.0
2472,605.0,605.0,528.0,3.0,6.0,4.0
2473,605.0,606.0,529.0,4.0,6.0,4.0
2474,606.0,607.0,529.0,4.0,6.0,4.0
2475,607.0,607.0,530.0,5.0,5.0,5.0
2476,607.0,606.0,529.0,4.0,6.0,4.0
2477,606.0,605.0,529.0,4.0,5.0,4.0
2478,605.0,598.0,531.0,4.0,6.0,4.0
2479,598.0,608.0,534.0,4.0,5.0,4.0
2480,608.0,607.0,526.0,4.0,5.0,4.0
2481,607.0,604.0,523.0,3.0,6.0,4.0
2482,604.0,607.0,527.0,4.0,5.0,4.0
2483,607.0,609.0,531.0,4.0,5.0,4.0
2484,609.0,607.0,532.0,4.0,5.0,4.0
2485,607.0,605.0,529.0,4.0,5.0,4.0
2486,605.0,604.0,529.0,4.0,5.0,4.0
2487,604.0,605.0,529.0,4.0,5.0,4.0
2488,605.0,606.0,529.0,4.0,5.0,5.0
2489,606.0,606.0,530.0,4.0,5.0,4.0
2490,606.0,606.0,529.0,4.0,5.0,4.0
2491,606.0,605.0,528.0,4.0,4.0,4.0
2492,605.0,605.0,529.0,4.0,5.0,4.0
2493,605.0,605.0,530.0,4.0,5.0,4.0
2494,605.0,605.0,531.0,4.0,5.0,3.0
2495,605.0,605.0,532.0,4.0,5.0,4.0
2496,605.0,605.0,530.0,4.0,5.0,5.0
2497,605.0,606.0,529.0,4.0,5.0,4.0
2498,606.0,606.0,531.0,3.0,4.0,4.0
2499,606.0,608.0,534.0,4.0,5.0,4.0
2500,608.0,611.0,531.0,4.0,5.0,4.0
2501,611.0,607.0,529.0,4.0,6.0,5.0
2502,607.0,607.0,529.0,3.0,5.0,4.0
2503,607.0,606.0,529.0,4.0,6.0,4.0
2504,606.0,605.0,530.0,4.0,5.0,4.0
2505,605.0,604.0,529.0,4.0,5.0,4.0
2506,604.0,603.0,528.0,4.0,5.0,4.0
2507,603.0,603.0,528.0,4.0,5.0,4.0
2508,603.0,604.0,528.0,4.0,5.0,4.0
2509,604.0,605.0,529.0,4.0,5.0,4.0
2510,605.0,606.0,529.0,4.0,5.0,4.0
2511,606.0,606.0,529.0,5.0,5.0,4.0
2512,606.0,607.0,529.0,4.0,5.0,4.0
2513,607.0,607.0,529.0,4.0,5.0,4.0
2514,607.0,607.0,529.0,4.0,5.0,4.0
2515,607.0,606.0,530.0,4.0,5.0,4.0
2516,606.0,606.0,529.0,4.0,4.0,4.0
2517,606.0,606.0,529.0,4.0,5.0,4.0
2518,606.0,606.0,530.0,4.0,5.0,4.0
2519,606.0,606.0,530.0,3.0,5.0,4.0
2520,606.0,606.0,530.0,4.0,5.0,4.0
2521,606.0,606.0,529.0,3.0,5.0,4.0
2522,606.0,605.0,530.0,5.0,5.0,4.0
2523,605.0,604.0,529.0,4.0,5.0,4.0
2524,604.0,605.0,529.0,4.0,4.0,4.0
2525,605.0,606.0,530.0,3.0,6.0,5.0
2526,606.0,605.0,530.0,4.0,5.0,4.0
2527,605.0,605.0,530.0,3.0,5.0,4.0
2528,605.0,605.0,529.0,4.0,5.0,4.0
2529,605.0,606.0,529.0,4.0,5.0,5.0
2530,606.0,606.0,530.0,4.0,4.0,4.0
2531,606.0,606.0,531.0,4.0,5.0,4.0
2532,606.0,606.0,530.0,4.0,5.0,5.0
2533,606.0,606.0,530.0,4.0,5.0,4.0
2534,606.0,606.0,530.0,4.0,5.0,4.0
2535,606.0,606.0,530.0,4.0,5.0,4.0
2536,606.0,606.0,530.0,4.0,5.0,4.0
2537,606.0,606.0,529.0,4.0,4.0,4.0
2538,606.0,606.0,530.0,5.0,4.0,4.0
2539,606.0,606.0,530.0,3.0,5.0,4.0
2540,606.0,605.0,529.0,4.0,4.0,4.0
2541,605.0,604.0,529.0,4.0,5.0,4.0
2542,604.0,604.0,529.0,4.0,5.0,4.0
2543,604.0,605.0,529.0,4.0,4.0,4.0
2544,605.0,605.0,530.0,4.0,4.0,3.0
2545,605.0,606.0,530.0,4.0,5.0,5.0
2546,606.0,605.0,530.0,4.0,4.0,4.0
2547,605.0,606.0,530.0,4.0,5.0,4.0
2548,606.0,606.0,530.0,3.0,5.0,3.0
2549,606.0,606.0,531.0,4.0,4.0,4.0
2550,606.0,607.0,531.0,4.0,4.0,3.0
2551,607.0,606.0,530.0,4.0,4.0,4.0
2552,606.0,605.0,530.0,4.0,5.0,4.0
2553,605.0,605.0,529.0,4.0,5.0,4.0
2554,605.0,605.0,529.0,4.0,4.0,4.0
2555,605.0,606.0,530.0,4.0,4.0,4.0
2556,606.0,606.0,530.0,4.0,4.0,4.0
2557,606.0,607.0,530.0,4.0,5.0,4.0
2558,607.0,606.0,530.0,4.0,4.0,4.0
2559,606.0,606.0,530.0,4.0,4.0,4.0
2560,606.0,607.0,530.0,4.0,4.0,4.0
2561,607.0,606.0,530.0,4.0,4.0,4.0
2562,606.0,607.0,530.0,4.0,5.0,4.0
2563,607.0,607.0,530.0,4.0,4.0,4.0
2564,607.0,606.0,529.0,3.0,4.0,4.0
2565,606.0,606.0,529.0,4.0,4.0,4.0
2566,606.0,606.0,529.0,3.0,4.0,4.0
2567,606.0,605.0,529.0,4.0,4.0,3.0
2568,605.0,606.0,529.0,4.0,5.0,4.0
2569,606.0,606.0,530.0,4.0,4.0,3.0
2570,606.0,606.0,530.0,4.0,5.0,4.0
2571,606.0,606.0,530.0,3.0,5.0,4.0
2572,606.0,606.0,530.0,3.0,4.0,4.0
2573,606.0,606.0,530.0,4.0,5.0,4.0
2574,606.0,606.0,531.0,4.0,5.0,4.0
2575,606.0,606.0,530.0,4.0,4.0,4.0
2576,606.0,606.0,530.0,4.0,4.0,4.0
2577,606.0,606.0,530.0,4.0,5.0,4.0
2578,606.0,605.0,530.0,4.0,4.0,3.0
2579,605.0,605.0,530.0,3.0,5.0,4.0
2580,605.0,605.0,530.0,4.0,4.0,4.0
2581,605.0,605.0,529.0,4.0,4.0,5.0
2582,605.0,606.0,530.0,4.0,4.0,4.0
2583,606.0,605.0,531.0,4.0,4.0,4.0
2584,605.0,605.0,532.0,4.0,5.0,4.0
2585,605.0,605.0,531.0,4.0,4.0,4.0
2586,605.0,605.0,530.0,4.0,4.0,4.0
2587,605.0,605.0,530.0,3.0,4.0,4.0
2588,605.0,605.0,529.0,3.0,4.0,4.0
2589,605.0,605.0,529.0,4.0,5.0,4.0
2590,605.0,605.0,529.0,4.0,4.0,4.0
2591,605.0,606.0,530.0,4.0,4.0,4.0
2592,606.0,606.0,531.0,4.0,4.0,4.0
2593,606.0,606.0,531.0,4.0,4.0,3.0
2594,606.0,606.0,531.0,3.0,5.0,3.0
2595,606.0,605.0,531.0,4.0,4.0,4.0
2596,605.0,605.0,532.0,4.0,4.0,4.0
2597,605.0,605.0,532.0,4.0,4.0,4.0
2598,605.0,605.0,532.0,4.0,4.0,4.0
2599,605.0,605.0,531.0,4.0,4.0,4.0
2600,605.0,604.0,530.0,4.0,4.0,3.0
2601,604.0,604.0,530.0,4.0,4.0,4.0
2602,604.0,604.0,530.0,4.0,5.0,3.0
2603,604.0,605.0,530.0,3.0,4.0,4.0
2604,605.0,605.0,530.0,4.0,4.0,4.0
2605,605.0,605.0,530.0,4.0,4.0,4.0
2606,605.0,605.0,530.0,5.0,4.0,4.0
2607,605.0,606.0,530.0,4.0,5.0,4.0
2608,606.0,606.0,530.0,4.0,4.0,4.0
2609,606.0,606.0,531.0,4.0,4.0,4.0
2610,606.0,606.0,530.0,4.0,4.0,3.0
2611,606.0,606.0,530.0,4.0,4.0,4.0
2612,606.0,606.0,530.0,4.0,5.0,4.0
2613,606.0,605.0,530.0,4.0,4.0,4.0
2614,605.0,605.0,530.0,4.0,4.0,4.0
2615,605.0,605.0,530.0,4.0,4.0,4.0
2616,605.0,605.0,530.0,5.0,4.0,4.0
2617,605.0,605.0,531.0,4.0,4.0,4.0
2618,605.0,605.0,531.0,4.0,4.0,4.0
2619,605.0,606.0,531.0,4.0,4.0,4.0
2620,606.0,605.0,532.0,4.0,5.0,4.0
2621,605.0,607.0,533.0,4.0,5.0,4.0
2622,607.0,607.0,534.0,4.0,4.0,4.0
2623,607.0,609.0,534.0,4.0,4.0,4.0
2624,609.0,606.0,532.0,4.0,4.0,4.0
2625,606.0,604.0,530.0,4.0,4.0,4.0
2626,604.0,604.0,529.0,4.0,4.0,4.0
2627,604.0,604.0,530.0,4.0,4.0,4.0
2628,604.0,605.0,529.0,3.0,4.0,4.0
2629,605.0,604.0,528.0,4.0,4.0,4.0
2630,604.0,606.0,529.0,4.0,4.0,4.0
2631,606.0,606.0,531.0,4.0,4.0,5.0
2632,606.0,606.0,532.0,4.0,4.0,4.0
2633,606.0,604.0,532.0,3.0,4.0,4.0
2634,604.0,603.0,531.0,4.0,4.0,4.0
2635,603.0,603.0,531.0,4.0,4.0,4.0
2636,603.0,603.0,532.0,3.0,3.0,4.0
2637,603.0,604.0,532.0,4.0,4.0,4.0
2638,604.0,605.0,532.0,4.0,4.0,4.0
2639,605.0,606.0,532.0,4.0,4.0,4.0
2640,606.0,606.0,532.0,4.0,4.0,4.0
2641,606.0,606.0,532.0,4.0,4.0,4.0
2642,606.0,605.0,532.0,4.0,4.0,4.0
2643,605.0,605.0,532.0,4.0,4.0,4.0
2644,605.0,605.0,532.0,4.0,4.0,4.0
2645,605.0,604.0,531.0,4.0,4.0,4.0
2646,604.0,605.0,532.0,4.0,4.0,4.0
2647,605.0,604.0,532.0,4.0,4.0,4.0
2648,604.0,605.0,531.0,4.0,4.0,4.0
2649,605.0,605.0,532.0,4.0,4.0,4.0
2650,605.0,605.0,531.0,4.0,4.0,4.0
2651,605.0,605.0,532.0,4.0,4.0,4.0
2652,605.0,605.0,531.0,4.0,4.0,4.0
2653,605.0,605.0,532.0,4.0,4.0,5.0
2654,605.0,605.0,531.0,3.0,4.0,4.0
2655,605.0,605.0,531.0,4.0,4.0,4.0
2656,605.0,606.0,531.0,4.0,4.0,4.0
2657,606.0,605.0,531.0,4.0,4.0,3.0
2658,605.0,605.0,531.0,4.0,4.0,4.0
2659,605.0,605.0,531.0,4.0,4.0,4.0
2660,605.0,606.0,531.0,4.0,4.0,4.0
2661,606.0,606.0,531.0,4.0,4.0,4.0
2662,606.0,606.0,531.0,3.0,4.0,4.0
2663,606.0,605.0,532.0,4.0,4.0,4.0
2664,605.0,606.0,532.0,3.0,4.0,4.0
2665,606.0,606.0,531.0,4.0,4.0,4.0
2666,606.0,605.0,531.0,4.0,4.0,4.0
2667,605.0,605.0,531.0,4.0,4.0,4.0
2668,605.0,605.0,531.0,4.0,4.0,3.0
2669,605.0,605.0,530.0,4.0,4.0,4.0
2670,605.0,605.0,530.0,4.0,4.0,4.0
2671,605.0,606.0,531.0,4.0,4.0,4.0
2672,606.0,606.0,532.0,4.0,4.0,4.0
2673,606.0,606.0,532.0,4.0,4.0,4.0
2674,606.0,606.0,533.0,4.0,5.0,4.0
2675,606.0,606.0,532.0,4.0,4.0,4.0
2676,606.0,606.0,534.0,4.0,4.0,4.0
2677,606.0,606.0,533.0,4.0,4.0,4.0
2678,606.0,606.0,533.0,4.0,4.0,4.0
2679,606.0,606.0,532.0,4.0,4.0,4.0
2680,606.0,606.0,533.0,4.0,4.0,4.0
2681,606.0,605.0,532.0,4.0,3.0,4.0
2682,605.0,603.0,532.0,4.0,4.0,3.0
2683,603.0,603.0,533.0,4.0,4.0,5.0
2684,603.0,604.0,533.0,4.0,4.0,4.0
2685,604.0,606.0,530.0,4.0,4.0,4.0
2686,606.0,605.0,528.0,4.0,4.0,4.0
2687,605.0,606.0,532.0,5.0,4.0,4.0
2688,606.0,608.0,535.0,4.0,4.0,4.0
2689,608.0,606.0,534.0,4.0,3.0,4.0
2690,606.0,604.0,531.0,3.0,4.0,4.0
2691,604.0,603.0,530.0,4.0,4.0,4.0
2692,603.0,603.0,531.0,4.0,4.0,4.0
2693,603.0,603.0,532.0,4.0,4.0,4.0
2694,603.0,605.0,534.0,4.0,4.0,4.0
2695,605.0,605.0,534.0,4.0,4.0,4.0
2696,605.0,604.0,533.0,5.0,4.0,4.0
2697,604.0,604.0,533.0,4.0,3.0,4.0
2698,604.0,605.0,534.0,4.0,3.0,4.0
2699,605.0,605.0,534.0,4.0,4.0,3.0
2700,605.0,605.0,533.0,3.0,5.0,4.0
2701,605.0,604.0,533.0,4.0,5.0,5.0
2702,604.0,603.0,533.0,4.0,4.0,3.0
2703,603.0,592.0,532.0,3.0,4.0,3.0
2704,592.0,615.0,540.0,4.0,4.0,4.0
2705,615.0,611.0,533.0,4.0,4.0,4.0
2706,611.0,593.0,526.0,4.0,4.0,4.0
2707,593.0,600.0,531.0,4.0,4.0,4.0
2708,600.0,608.0,532.0,4.0,4.0,4.0
2709,608.0,596.0,525.0,5.0,4.0,4.0
2710,596.0,540.0,485.0,4.0,4.0,3.0
2711,540.0,586.0,530.0,4.0,3.0,4.0
2712,586.0,653.0,568.0,4.0,4.0,4.0
2713,653.0,650.0,564.0,4.0,4.0,4.0
2714,650.0,613.0,538.0,5.0,4.0,4.0
2715,613.0,591.0,521.0,4.0,4.0,4.0
2716,591.0,592.0,520.0,5.0,4.0,4.0
2717,592.0,601.0,531.0,4.0,4.0,5.0
2718,601.0,608.0,539.0,4.0,4.0,4.0
2719,608.0,610.0,539.0,4.0,4.0,4.0
2720,610.0,607.0,534.0,4.0,4.0,4.0
2721,607.0,603.0,530.0,4.0,4.0,4.0
2722,603.0,603.0,530.0,4.0,4.0,4.0
2723,603.0,604.0,532.0,4.0,4.0,4.0
2724,604.0,605.0,533.0,4.0,4.0,4.0
2725,605.0,605.0,533.0,4.0,4.0,4.0
2726,605.0,605.0,533.0,3.0,3.0,4.0
2727,605.0,605.0,533.0,4.0,3.0,3.0
2728,605.0,604.0,532.0,4.0,4.0,4.0
2729,604.0,608.0,533.0,4.0,4.0,4.0
2730,608.0,607.0,533.0,4.0,4.0,4.0
2731,607.0,603.0,533.0,4.0,4.0,3.0
2732,603.0,602.0,534.0,4.0,4.0,4.0
2733,602.0,606.0,534.0,4.0,4.0,4.0
2734,606.0,607.0,533.0,4.0,5.0,4.0
2735,607.0,605.0,531.0,4.0,4.0,4.0
2736,605.0,603.0,530.0,3.0,4.0,4.0
2737,603.0,603.0,531.0,4.0,4.0,4.0
2738,603.0,605.0,532.0,4.0,4.0,4.0
2739,605.0,605.0,533.0,4.0,4.0,4.0
2740,605.0,605.0,533.0,3.0,4.0,3.0
2741,605.0,605.0,533.0,3.0,4.0,4.0
2742,605.0,605.0,533.0,4.0,4.0,3.0
2743,605.0,606.0,533.0,4.0,4.0,4.0
2744,606.0,605.0,533.0,3.0,4.0,4.0
2745,605.0,605.0,533.0,4.0,5.0,4.0
2746,605.0,604.0,533.0,4.0,4.0,4.0
2747,604.0,604.0,533.0,4.0,4.0,4.0
2748,604.0,604.0,532.0,4.0,4.0,4.0
2749,604.0,604.0,532.0,4.0,4.0,5.0
2750,604.0,604.0,533.0,4.0,4.0,4.0
2751,604.0,605.0,533.0,4.0,4.0,4.0
2752,605.0,605.0,533.0,5.0,3.0,3.0
2753,605.0,604.0,533.0,4.0,4.0,4.0
2754,604.0,605.0,533.0,4.0,4.0,4.0
2755,605.0,605.0,533.0,4.0,4.0,4.0
2756,605.0,605.0,533.0,3.0,3.0,4.0
2757,605.0,605.0,532.0,4.0,4.0,4.0
2758,605.0,605.0,533.0,4.0,4.0,4.0
2759,605.0,604.0,533.0,4.0,4.0,4.0
2760,604.0,604.0,532.0,5.0,4.0,4.0
2761,604.0,604.0,532.0,4.0,4.0,4.0
2762,604.0,605.0,533.0,4.0,4.0,4.0
2763,605.0,605.0,533.0,4.0,4.0,4.0
2764,605.0,605.0,533.0,4.0,4.0,4.0
2765,605.0,605.0,533.0,4.0,4.0,4.0
2766,605.0,605.0,533.0,4.0,4.0,4.0
2767,605.0,604.0,533.0,4.0,4.0,4.0
2768,604.0,605.0,533.0,4.0,3.0,4.0
2769,605.0,604.0,532.0,4.0,4.0,4.0
2770,604.0,604.0,532.0,4.0,3.0,4.0
2771,604.0,604.0,533.0,5.0,4.0,4.0
2772,604.0,604.0,533.0,4.0,4.0,4.0
2773,604.0,605.0,533.0,3.0,4.0,4.0
2774,605.0,605.0,532.0,4.0,4.0,4.0
2775,605.0,605.0,532.0,4.0,3.0,4.0
2776,605.0,605.0,533.0,3.0,4.0,4.0
2777,605.0,605.0,532.0,4.0,4.0,4.0
2778,605.0,604.0,533.0,4.0,4.0,4.0
2779,604.0,605.0,533.0,4.0,4.0,4.0
2780,605.0,604.0,532.0,4.0,4.0,4.0
2781,604.0,604.0,532.0,3.0,4.0,4.0
2782,604.0,604.0,532.0,3.0,4.0,4.0
2783,604.0,605.0,533.0,3.0,4.0,4.0
2784,605.0,604.0,533.0,4.0,4.0,4.0
2785,604.0,605.0,533.0,4.0,4.0,4.0
2786,605.0,604.0,532.0,4.0,4.0,4.0
2787,604.0,604.0,533.0,4.0,3.0,4.0
2788,604.0,604.0,533.0,4.0,4.0,3.0
2789,604.0,604.0,533.0,4.0,5.0,4.0
2790,604.0,604.0,533.0,4.0,4.0,4.0
2791,604.0,604.0,533.0,3.0,4.0,4.0
2792,604.0,604.0,533.0,3.0,3.0,4.0
2793,604.0,605.0,533.0,4.0,4.0,5.0
2794,605.0,605.0,533.0,2.0,3.0,3.0
2795,605.0,604.0,533.0,4.0,4.0,5.0
2796,604.0,604.0,533.0,3.0,4.0,3.0
2797,604.0,604.0,533.0,4.0,4.0,4.0
2798,604.0,604.0,533.0,4.0,4.0,4.0
2799,604.0,604.0,534.0,4.0,5.0,4.0
2800,604.0,604.0,534.0,4.0,4.0,4.0
2801,604.0,604.0,533.0,4.0,5.0,4.0
2802,604.0,605.0,534.0,3.0,4.0,5.0
2803,605.0,604.0,533.0,4.0,4.0,4.0
2804,604.0,605.0,534.0,5.0,4.0,4.0
2805,605.0,605.0,534.0,4.0,4.0,3.0
2806,605.0,605.0,534.0,4.0,3.0,5.0
2807,605.0,605.0,533.0,4.0,4.0,4.0
2808,605.0,605.0,533.0,3.0,4.0,4.0
2809,605.0,604.0,533.0,3.0,4.0,4.0
2810,604.0,604.0,533.0,4.0,4.0,4.0
2811,604.0,605.0,533.0,4.0,4.0,4.0
2812,605.0,605.0,532.0,3.0,4.0,4.0
2813,605.0,605.0,533.0,2.0,4.0,4.0
2814,605.0,604.0,533.0,4.0,4.0,4.0
2815,604.0,604.0,534.0,4.0,4.0,4.0
2816,604.0,606.0,533.0,4.0,4.0,4.0
2817,606.0,605.0,533.0,4.0,4.0,4.0
2818,605.0,605.0,532.0,4.0,4.0,4.0
2819,605.0,604.0,532.0,4.0,4.0,4.0
2820,604.0,604.0,532.0,4.0,4.0,4.0
2821,604.0,604.0,532.0,4.0,4.0,4.0
2822,604.0,605.0,533.0,3.0,4.0,4.0
2823,605.0,605.0,533.0,4.0,4.0,3.0
2824,605.0,605.0,533.0,4.0,4.0,3.0
2825,605.0,605.0,534.0,4.0,4.0,5.0
2826,605.0,605.0,533.0,4.0,4.0,4.0
2827,605.0,605.0,533.0,3.0,4.0,4.0
2828,605.0,605.0,533.0,4.0,4.0,4.0
2829,605.0,605.0,533.0,4.0,4.0,4.0
2830,605.0,604.0,533.0,4.0,3.0,4.0
2831,604.0,603.0,532.0,4.0,4.0,4.0
2832,603.0,603.0,532.0,3.0,4.0,3.0
2833,603.0,604.0,532.0,4.0,3.0,4.0
2834,604.0,604.0,533.0,3.0,4.0,4.0
2835,604.0,604.0,533.0,4.0,4.0,4.0
2836,604.0,605.0,533.0,3.0,4.0,4.0
2837,605.0,605.0,532.0,4.0,4.0,4.0
2838,605.0,605.0,532.0,4.0,4.0,4.0
2839,605.0,605.0,533.0,4.0,4.0,4.0
2840,605.0,606.0,533.0,4.0,4.0,4.0
2841,606.0,605.0,533.0,4.0,4.0,4.0
2842,605.0,605.0,533.0,4.0,3.0,4.0
2843,605.0,605.0,533.0,4.0,4.0,4.0
2844,605.0,604.0,533.0,4.0,4.0,4.0
2845,604.0,605.0,533.0,3.0,4.0,4.0
2846,605.0,606.0,532.0,4.0,4.0,4.0
2847,606.0,605.0,532.0,4.0,4.0,4.0
2848,605.0,603.0,532.0,5.0,4.0,4.0
2849,603.0,602.0,533.0,3.0,4.0,4.0
2850,602.0,602.0,534.0,4.0,4.0,4.0
2851,602.0,603.0,534.0,4.0,4.0,4.0
2852,603.0,605.0,534.0,4.0,4.0,4.0
2853,605.0,604.0,533.0,4.0,4.0,6.0
2854,604.0,605.0,532.0,3.0,4.0,4.0
2855,605.0,605.0,533.0,4.0,4.0,4.0
2856,605.0,605.0,533.0,4.0,4.0,4.0
2857,605.0,606.0,533.0,4.0,4.0,4.0
2858,606.0,606.0,533.0,4.0,3.0,4.0
2859,606.0,606.0,532.0,4.0,4.0,5.0
2860,606.0,605.0,532.0,4.0,4.0,4.0
2861,605.0,605.0,532.0,4.0,4.0,4.0
2862,605.0,605.0,532.0,4.0,4.0,3.0
2863,605.0,604.0,532.0,4.0,4.0,4.0
2864,604.0,604.0,532.0,4.0,4.0,4.0
2865,604.0,604.0,532.0,5.0,4.0,4.0
2866,604.0,605.0,532.0,4.0,4.0,4.0
2867,605.0,605.0,532.0,4.0,4.0,4.0
2868,605.0,605.0,532.0,4.0,4.0,4.0
2869,605.0,605.0,533.0,4.0,4.0,3.0
2870,605.0,605.0,533.0,4.0,4.0,4.0
2871,605.0,604.0,533.0,4.0,4.0,3.0
2872,604.0,604.0,533.0,5.0,4.0,4.0
2873,604.0,605.0,533.0,4.0,4.0,4.0
2874,605.0,605.0,533.0,4.0,4.0,3.0
2875,605.0,605.0,533.0,4.0,4.0,4.0
2876,605.0,605.0,534.0,4.0,3.0,4.0
2877,605.0,605.0,533.0,4.0,4.0,4.0
2878,605.0,605.0,533.0,4.0,4.0,4.0
2879,605.0,605.0,533.0,4.0,4.0,4.0
2880,605.0,605.0,533.0,4.0,4.0,4.0
2881,605.0,605.0,533.0,4.0,4.0,5.0
2882,605.0,604.0,534.0,3.0,4.0,4.0
2883,604.0,605.0,533.0,4.0,4.0,4.0
2884,605.0,604.0,533.0,4.0,4.0,4.0
2885,604.0,605.0,533.0,4.0,4.0,4.0
2886,605.0,605.0,533.0,4.0,4.0,4.0
2887,605.0,605.0,533.0,4.0,4.0,4.0
2888,605.0,605.0,533.0,4.0,4.0,4.0
2889,605.0,605.0,533.0,5.0,3.0,5.0
2890,605.0,604.0,532.0,4.0,4.0,5.0
2891,604.0,605.0,533.0,4.0,4.0,4.0
2892,605.0,605.0,532.0,4.0,4.0,3.0
2893,605.0,605.0,532.0,4.0,4.0,3.0
2894,605.0,605.0,533.0,4.0,4.0,4.0
2895,605.0,605.0,532.0,4.0,4.0,4.0
2896,605.0,605.0,532.0,4.0,4.0,4.0
2897,605.0,605.0,532.0,5.0,4.0,4.0
2898,605.0,605.0,532.0,4.0,4.0,4.0
2899,605.0,605.0,532.0,4.0,4.0,4.0
2900,605.0,605.0,532.0,4.0,4.0,4.0
2901,605.0,605.0,532.0,4.0,4.0,4.0
2902,605.0,605.0,532.0,4.0,4.0,4.0
2903,605.0,605.0,532.0,4.0,3.0,4.0
2904,605.0,605.0,532.0,4.0,4.0,4.0
2905,605.0,605.0,532.0,4.0,4.0,4.0
2906,605.0,604.0,532.0,5.0,4.0,4.0
2907,604.0,604.0,533.0,4.0,4.0,4.0
2908,604.0,604.0,533.0,4.0,4.0,4.0
2909,604.0,604.0,533.0,4.0,4.0,4.0
2910,604.0,604.0,533.0,4.0,3.0,4.0
2911,604.0,604.0,533.0,4.0,3.0,4.0
2912,604.0,604.0,533.0,4.0,4.0,4.0
2913,604.0,604.0,533.0,4.0,4.0,4.0
2914,604.0,604.0,533.0,4.0,4.0,4.0
2915,604.0,604.0,533.0,4.0,4.0,4.0
2916,604.0,604.0,534.0,4.0,4.0,5.0
2917,604.0,604.0,533.0,4.0,4.0,4.0
2918,604.0,604.0,534.0,4.0,4.0,4.0
2919,604.0,604.0,533.0,4.0,4.0,4.0
2920,604.0,604.0,533.0,4.0,4.0,4.0
2921,604.0,605.0,533.0,4.0,3.0,4.0
2922,605.0,605.0,533.0,4.0,4.0,4.0
2923,605.0,605.0,533.0,4.0,4.0,4.0
2924,605.0,605.0,533.0,4.0,4.0,4.0
2925,605.0,605.0,533.0,4.0,4.0,3.0
2926,605.0,605.0,533.0,4.0,4.0,4.0
2927,605.0,604.0,533.0,4.0,4.0,4.0
2928,604.0,603.0,533.0,3.0,3.0,5.0
2929,603.0,603.0,534.0,3.0,4.0,3.0
2930,603.0,603.0,534.0,4.0,4.0,4.0
2931,603.0,604.0,534.0,4.0,4.0,3.0
2932,604.0,604.0,534.0,4.0,4.0,4.0
2933,604.0,605.0,534.0,5.0,4.0,4.0
2934,605.0,604.0,533.0,3.0,4.0,3.0
2935,604.0,605.0,534.0,4.0,3.0,4.0
2936,605.0,605.0,533.0,4.0,4.0,4.0
2937,605.0,605.0,534.0,4.0,4.0,4.0
2938,605.0,604.0,533.0,4.0,4.0,3.0
2939,604.0,605.0,533.0,4.0,4.0,4.0
2940,605.0,605.0,533.0,4.0,4.0,4.0
2941,605.0,605.0,532.0,4.0,4.0,4.0
2942,605.0,605.0,533.0,4.0,4.0,4.0
2943,605.0,605.0,533.0,4.0,4.0,4.0
2944,605.0,605.0,533.0,4.0,4.0,4.0
2945,605.0,605.0,533.0,4.0,4.0,4.0
2946,605.0,605.0,533.0,5.0,4.0,4.0
2947,605.0,605.0,533.0,4.0,4.0,4.0
2948,605.0,604.0,533.0,4.0,4.0,4.0
2949,604.0,605.0,533.0,3.0,3.0,4.0
2950,605.0,604.0,532.0,4.0,4.0,4.0
2951,604.0,603.0,531.0,4.0,4.0,4.0
2952,603.0,603.0,531.0,4.0,4.0,5.0
2953,603.0,604.0,532.0,4.0,4.0,4.0
2954,604.0,605.0,533.0,4.0,4.0,5.0
2955,605.0,605.0,533.0,4.0,4.0,4.0
2956,605.0,606.0,533.0,4.0,4.0,4.0
2957,606.0,606.0,533.0,4.0,2.0,4.0
2958,606.0,605.0,533.0,4.0,4.0,4.0
2959,605.0,604.0,533.0,4.0,4.0,3.0
2960,604.0,604.0,531.0,5.0,4.0,4.0
2961,604.0,606.0,533.0,4.0,4.0,4.0
2962,606.0,608.0,535.0,4.0,4.0,4.0
2963,608.0,606.0,533.0,4.0,4.0,4.0
2964,606.0,604.0,531.0,4.0,4.0,4.0
2965,604.0,604.0,532.0,4.0,4.0,3.0
2966,604.0,605.0,532.0,4.0,4.0,4.0
2967,605.0,605.0,533.0,4.0,4.0,4.0
2968,605.0,605.0,532.0,4.0,4.0,4.0
2969,605.0,605.0,532.0,4.0,4.0,4.0
2970,605.0,605.0,533.0,4.0,4.0,4.0
2971,605.0,605.0,532.0,3.0,4.0,4.0
2972,605.0,605.0,533.0,4.0,4.0,4.0
2973,605.0,605.0,533.0,4.0,4.0,4.0
2974,605.0,604.0,533.0,4.0,4.0,4.0
2975,604.0,604.0,533.0,3.0,4.0,4.0
2976,604.0,605.0,532.0,4.0,4.0,4.0
2977,605.0,605.0,533.0,4.0,4.0,4.0
2978,605.0,604.0,532.0,4.0,4.0,4.0
2979,604.0,604.0,532.0,4.0,4.0,4.0
2980,604.0,604.0,532.0,4.0,4.0,4.0
2981,604.0,604.0,533.0,4.0,4.0,4.0
2982,604.0,604.0,533.0,4.0,4.0,5.0
2983,604.0,604.0,533.0,4.0,3.0,4.0
2984,604.0,604.0,533.0,4.0,4.0,4.0
2985,604.0,604.0,532.0,4.0,4.0,4.0
2986,604.0,604.0,533.0,4.0,4.0,5.0
2987,604.0,604.0,532.0,4.0,4.0,4.0
2988,604.0,604.0,533.0,4.0,4.0,4.0
2989,604.0,605.0,533.0,4.0,4.0,4.0
2990,605.0,605.0,533.0,4.0,3.0,4.0
2991,605.0,605.0,533.0,4.0,3.0,4.0
2992,605.0,604.0,533.0,3.0,4.0,4.0
2993,604.0,604.0,533.0,4.0,4.0,4.0
2994,604.0,604.0,533.0,4.0,4.0,4.0
2995,604.0,604.0,533.0,4.0,4.0,3.0
2996,604.0,605.0,532.0,4.0,4.0,4.0
2997,605.0,605.0,533.0,4.0,4.0,3.0
2998,605.0,604.0,533.0,4.0,4.0,4.0
2999,604.0,604.0,532.0,4.0,5.0,4.0
3000,604.0,605.0,533.0,4.0,4.0,4.0
3001,605.0,604.0,532.0,4.0,3.0,3.0
3002,604.0,605.0,532.0,4.0,4.0,4.0
3003,605.0,605.0,533.0,4.0,4.0,4.0
3004,605.0,604.0,533.0,5.0,5.0,5.0
3005,604.0,604.0,532.0,4.0,4.0,4.0
3006,604.0,604.0,533.0,4.0,4.0,4.0
3007,604.0,604.0,533.0,5.0,4.0,4.0
3008,604.0,604.0,533.0,4.0,3.0,4.0
3009,604.0,605.0,533.0,4.0,4.0,5.0
3010,605.0,605.0,533.0,4.0,4.0,4.0
3011,605.0,605.0,533.0,4.0,3.0,4.0
3012,605.0,605.0,533.0,4.0,3.0,4.0
3013,605.0,605.0,533.0,4.0,4.0,4.0
3014,605.0,605.0,533.0,4.0,4.0,4.0
3015,605.0,605.0,533.0,4.0,4.0,4.0
3016,605.0,604.0,533.0,4.0,5.0,4.0
3017,604.0,604.0,533.0,4.0,4.0,4.0
3018,604.0,605.0,533.0,4.0,4.0,4.0
3019,605.0,605.0,532.0,4.0,4.0,5.0
3020,605.0,605.0,533.0,4.0,4.0,4.0
3021,605.0,605.0,533.0,4.0,4.0,4.0
3022,605.0,605.0,533.0,4.0,3.0,5.0
3023,605.0,605.0,533.0,4.0,4.0,4.0
3024,605.0,605.0,533.0,5.0,4.0,4.0
3025,605.0,605.0,533.0,4.0,3.0,4.0
3026,605.0,604.0,532.0,4.0,4.0,4.0
3027,604.0,605.0,532.0,4.0,4.0,4.0
3028,605.0,605.0,532.0,4.0,4.0,4.0
3029,605.0,605.0,533.0,4.0,3.0,4.0
3030,605.0,605.0,533.0,3.0,3.0,3.0
3031,605.0,605.0,533.0,4.0,4.0,4.0
3032,605.0,605.0,534.0,4.0,4.0,4.0
3033,605.0,605.0,533.0,5.0,3.0,4.0
3034,605.0,605.0,534.0,4.0,3.0,4.0
3035,605.0,605.0,534.0,3.0,4.0,4.0
3036,605.0,605.0,533.0,4.0,4.0,4.0
3037,605.0,605.0,533.0,4.0,4.0,4.0
3038,605.0,605.0,533.0,4.0,4.0,4.0
3039,605.0,605.0,533.0,4.0,4.0,4.0
3040,605.0,604.0,533.0,4.0,4.0,4.0
3041,604.0,605.0,533.0,4.0,4.0,4.0
3042,605.0,605.0,532.0,4.0,4.0,3.0
3043,605.0,605.0,533.0,4.0,4.0,4.0
3044,605.0,605.0,533.0,4.0,4.0,4.0
3045,605.0,604.0,533.0,3.0,4.0,3.0
3046,604.0,605.0,533.0,4.0,4.0,4.0
3047,605.0,605.0,533.0,4.0,4.0,4.0
3048,605.0,605.0,532.0,4.0,3.0,3.0
3049,605.0,605.0,533.0,4.0,4.0,4.0
3050,605.0,605.0,533.0,5.0,4.0,4.0
3051,605.0,605.0,532.0,4.0,3.0,4.0
3052,605.0,604.0,533.0,4.0,3.0,4.0
3053,604.0,605.0,532.0,4.0,4.0,4.0
3054,605.0,605.0,532.0,4.0,4.0,4.0
3055,605.0,605.0,532.0,4.0,4.0,4.0
3056,605.0,605.0,532.0,4.0,3.0,4.0
3057,605.0,605.0,533.0,4.0,4.0,4.0
3058,605.0,605.0,533.0,4.0,3.0,4.0
3059,605.0,604.0,532.0,4.0,4.0,4.0
3060,604.0,605.0,532.0,4.0,4.0,4.0
3061,605.0,605.0,532.0,4.0,4.0,4.0
3062,605.0,605.0,532.0,4.0,4.0,4.0
3063,605.0,604.0,532.0,3.0,3.0,4.0
3064,604.0,604.0,533.0,3.0,4.0,4.0
3065,604.0,605.0,532.0,4.0,4.0,4.0
3066,605.0,605.0,532.0,4.0,4.0,5.0
3067,605.0,605.0,532.0,4.0,4.0,4.0
3068,605.0,605.0,532.0,4.0,3.0,4.0
3069,605.0,604.0,533.0,3.0,4.0,4.0
3070,604.0,604.0,532.0,4.0,4.0,4.0
3071,604.0,604.0,533.0,4.0,4.0,3.0
3072,604.0,605.0,533.0,4.0,4.0,4.0
3073,605.0,604.0,533.0,4.0,4.0,4.0
3074,604.0,605.0,533.0,4.0,4.0,4.0
3075,605.0,605.0,533.0,4.0,4.0,4.0
3076,605.0,605.0,533.0,4.0,4.0,4.0
3077,605.0,604.0,533.0,4.0,4.0,4.0
3078,604.0,605.0,533.0,4.0,4.0,4.0
3079,605.0,605.0,532.0,4.0,4.0,3.0
3080,605.0,605.0,532.0,4.0,4.0,4.0
3081,605.0,605.0,532.0,4.0,4.0,4.0
3082,605.0,605.0,532.0,4.0,3.0,4.0
3083,605.0,605.0,532.0,4.0,4.0,4.0
3084,605.0,604.0,533.0,4.0,3.0,4.0
3085,604.0,605.0,533.0,4.0,3.0,4.0
3086,605.0,604.0,532.0,4.0,3.0,4.0
3087,604.0,605.0,533.0,4.0,4.0,4.0
3088,605.0,605.0,533.0,4.0,4.0,4.0
3089,605.0,605.0,533.0,4.0,4.0,4.0
3090,605.0,604.0,533.0,4.0,4.0,4.0
3091,604.0,605.0,533.0,4.0,4.0,5.0
3092,605.0,604.0,533.0,4.0,4.0,4.0
3093,604.0,604.0,533.0,4.0,4.0,4.0
3094,604.0,604.0,533.0,4.0,4.0,4.0
3095,604.0,605.0,533.0,4.0,4.0,4.0
3096,605.0,605.0,533.0,3.0,4.0,4.0
3097,605.0,605.0,533.0,4.0,3.0,3.0
3098,605.0,604.0,533.0,4.0,4.0,4.0
3099,604.0,605.0,533.0,3.0,3.0,4.0
3100,605.0,605.0,533.0,4.0,4.0,3.0
3101,605.0,604.0,533.0,4.0,4.0,4.0
3102,604.0,605.0,533.0,4.0,4.0,3.0
3103,605.0,605.0,533.0,4.0,4.0,4.0
3104,605.0,605.0,533.0,4.0,4.0,3.0
3105,605.0,605.0,533.0,4.0,4.0,5.0
3106,605.0,605.0,533.0,4.0,4.0,4.0
3107,605.0,605.0,532.0,4.0,4.0,4.0
3108,605.0,605.0,532.0,4.0,4.0,5.0
3109,605.0,604.0,532.0,4.0,4.0,4.0
3110,604.0,605.0,532.0,4.0,4.0,4.0
3111,605.0,605.0,532.0,4.0,4.0,4.0
3112,605.0,605.0,532.0,3.0,3.0,4.0
3113,605.0,605.0,532.0,4.0,4.0,4.0
3114,605.0,605.0,532.0,4.0,4.0,4.0
3115,605.0,605.0,532.0,3.0,4.0,4.0
3116,605.0,605.0,532.0,4.0,4.0,4.0
3117,605.0,605.0,532.0,3.0,3.0,5.0
3118,605.0,605.0,533.0,4.0,4.0,4.0
3119,605.0,605.0,532.0,4.0,4.0,4.0
3120,605.0,605.0,533.0,4.0,3.0,4.0
3121,605.0,605.0,533.0,4.0,4.0,4.0
3122,605.0,605.0,533.0,4.0,3.0,2.0
3123,605.0,605.0,533.0,3.0,4.0,4.0
3124,605.0,605.0,533.0,4.0,4.0,4.0
3125,605.0,605.0,533.0,5.0,4.0,4.0
3126,605.0,604.0,533.0,4.0,4.0,4.0
3127,604.0,605.0,533.0,4.0,4.0,4.0
3128,605.0,605.0,533.0,4.0,4.0,3.0
3129,605.0,605.0,532.0,4.0,4.0,4.0
3130,605.0,605.0,533.0,5.0,4.0,4.0
3131,605.0,605.0,533.0,5.0,3.0,4.0
3132,605.0,605.0,533.0,3.0,4.0,4.0
3133,605.0,605.0,532.0,5.0,4.0,4.0
3134,605.0,605.0,532.0,4.0,4.0,4.0
3135,605.0,605.0,532.0,4.0,4.0,4.0
3136,605.0,605.0,533.0,4.0,4.0,4.0
3137,605.0,605.0,533.0,4.0,4.0,4.0
3138,605.0,605.0,532.0,4.0,4.0,4.0
3139,605.0,605.0,533.0,4.0,3.0,4.0
3140,605.0,605.0,532.0,4.0,4.0,4.0
3141,605.0,605.0,533.0,4.0,4.0,4.0
3142,605.0,605.0,533.0,6.0,4.0,4.0
3143,605.0,605.0,532.0,3.0,4.0,4.0
3144,605.0,605.0,533.0,4.0,4.0,4.0
3145,605.0,604.0,533.0,4.0,4.0,4.0
3146,604.0,605.0,532.0,4.0,4.0,4.0
3147,605.0,605.0,532.0,4.0,5.0,4.0
3148,605.0,604.0,532.0,4.0,4.0,4.0
3149,604.0,604.0,532.0,4.0,4.0,4.0
3150,604.0,605.0,532.0,4.0,3.0,4.0
3151,605.0,605.0,532.0,4.0,4.0,4.0
3152,605.0,605.0,533.0,4.0,4.0,4.0
3153,605.0,605.0,533.0,4.0,4.0,4.0
3154,605.0,606.0,533.0,4.0,4.0,3.0
3155,606.0,607.0,534.0,4.0,4.0,4.0
3156,607.0,606.0,533.0,4.0,4.0,4.0
3157,606.0,604.0,532.0,3.0,4.0,4.0
3158,604.0,603.0,532.0,4.0,4.0,4.0
3159,603.0,603.0,532.0,4.0,4.0,4.0
3160,603.0,603.0,533.0,4.0,4.0,4.0
3161,603.0,604.0,533.0,3.0,4.0,3.0
3162,604.0,605.0,533.0,4.0,4.0,4.0
3163,605.0,605.0,533.0,4.0,4.0,4.0
3164,605.0,605.0,533.0,4.0,3.0,4.0
3165,605.0,605.0,533.0,3.0,4.0,4.0
3166,605.0,605.0,533.0,4.0,3.0,3.0
3167,605.0,605.0,533.0,4.0,3.0,4.0
3168,605.0,604.0,533.0,4.0,4.0,4.0
3169,604.0,604.0,533.0,5.0,4.0,4.0
3170,604.0,604.0,533.0,4.0,3.0,4.0
3171,604.0,604.0,532.0,4.0,4.0,4.0
3172,604.0,605.0,532.0,4.0,4.0,4.0
3173,605.0,605.0,532.0,4.0,4.0,3.0
3174,605.0,605.0,532.0,4.0,4.0,4.0
3175,605.0,605.0,532.0,4.0,4.0,4.0
3176,605.0,605.0,532.0,4.0,4.0,4.0
3177,605.0,605.0,533.0,4.0,4.0,4.0
3178,605.0,605.0,533.0,3.0,3.0,4.0
3179,605.0,605.0,532.0,4.0,4.0,4.0
3180,605.0,605.0,533.0,4.0,4.0,4.0
3181,605.0,605.0,533.0,4.0,4.0,4.0
3182,605.0,605.0,533.0,4.0,4.0,4.0
3183,605.0,605.0,533.0,4.0,4.0,4.0
3184,605.0,604.0,533.0,4.0,3.0,4.0
3185,604.0,605.0,533.0,4.0,3.0,4.0
3186,605.0,605.0,533.0,4.0,4.0,4.0
3187,605.0,604.0,533.0,5.0,4.0,4.0
3188,604.0,605.0,533.0,3.0,4.0,4.0
3189,605.0,604.0,533.0,4.0,4.0,4.0
3190,604.0,605.0,533.0,4.0,3.0,4.0
3191,605.0,604.0,533.0,4.0,4.0,4.0
3192,604.0,604.0,533.0,4.0,4.0,4.0
3193,604.0,605.0,533.0,4.0,4.0,4.0
3194,605.0,605.0,533.0,4.0,4.0,4.0
3195,605.0,605.0,533.0,4.0,4.0,4.0
3196,605.0,605.0,533.0,4.0,3.0,4.0
3197,605.0,605.0,533.0,4.0,4.0,4.0
3198,605.0,605.0,532.0,5.0,4.0,4.0
3199,605.0,605.0,533.0,4.0,4.0,4.0
3200,605.0,605.0,533.0,4.0,4.0,4.0
3201,605.0,605.0,532.0,4.0,4.0,4.0
3202,605.0,605.0,532.0,4.0,4.0,4.0
3203,605.0,605.0,533.0,4.0,4.0,3.0
3204,605.0,605.0,532.0,4.0,4.0,4.0
3205,605.0,605.0,533.0,4.0,4.0,4.0
3206,605.0,605.0,532.0,4.0,4.0,4.0
3207,605.0,605.0,532.0,4.0,4.0,4.0
3208,605.0,605.0,532.0,4.0,4.0,3.0
3209,605.0,604.0,532.0,3.0,4.0,3.0
3210,604.0,605.0,533.0,4.0,4.0,4.0
3211,605.0,604.0,532.0,4.0,4.0,4.0
3212,604.0,605.0,532.0,4.0,4.0,4.0
3213,605.0,605.0,533.0,4.0,4.0,4.0
3214,605.0,605.0,533.0,4.0,4.0,4.0
3215,605.0,605.0,533.0,4.0,4.0,4.0
3216,605.0,605.0,533.0,4.0,4.0,4.0
3217,605.0,605.0,533.0,4.0,4.0,3.0
3218,605.0,605.0,533.0,4.0,3.0,4.0
3219,605.0,604.0,533.0,5.0,4.0,4.0
3220,604.0,605.0,533.0,4.0,4.0,4.0
3221,605.0,605.0,533.0,3.0,4.0,4.0
3222,605.0,605.0,532.0,4.0,5.0,4.0
3223,605.0,605.0,532.0,4.0,4.0,4.0
3224,605.0,605.0,532.0,4.0,4.0,4.0
3225,605.0,605.0,532.0,4.0,4.0,4.0
3226,605.0,604.0,532.0,4.0,4.0,4.0
3227,604.0,604.0,533.0,3.0,4.0,4.0
3228,604.0,604.0,533.0,4.0,4.0,3.0
3229,604.0,604.0,533.0,4.0,4.0,5.0
3230,604.0,604.0,533.0,4.0,4.0,4.0
3231,604.0,604.0,533.0,4.0,4.0,4.0
3232,604.0,604.0,533.0,4.0,5.0,4.0
3233,604.0,605.0,533.0,4.0,3.0,4.0
3234,605.0,605.0,532.0,3.0,4.0,4.0
3235,605.0,605.0,533.0,4.0,4.0,4.0
3236,605.0,605.0,533.0,4.0,4.0,5.0
3237,605.0,605.0,533.0,4.0,4.0,3.0
3238,605.0,605.0,532.0,4.0,4.0,4.0
3239,605.0,605.0,532.0,4.0,4.0,4.0
3240,605.0,605.0,533.0,4.0,4.0,4.0
3241,605.0,605.0,532.0,4.0,4.0,4.0
3242,605.0,605.0,532.0,3.0,4.0,4.0
3243,605.0,605.0,532.0,4.0,4.0,4.0
3244,605.0,605.0,532.0,5.0,4.0,4.0
3245,605.0,605.0,532.0,4.0,4.0,4.0
3246,605.0,605.0,533.0,4.0,4.0,4.0
3247,605.0,605.0,533.0,6.0,4.0,4.0
3248,605.0,605.0,532.0,4.0,4.0,4.0
3249,605.0,605.0,532.0,4.0,3.0,4.0
3250,605.0,605.0,533.0,3.0,4.0,4.0
3251,605.0,605.0,533.0,4.0,4.0,4.0
3252,605.0,605.0,532.0,4.0,3.0,4.0
3253,605.0,605.0,533.0,3.0,4.0,4.0
3254,605.0,605.0,532.0,4.0,4.0,5.0
3255,605.0,605.0,533.0,4.0,4.0,4.0
3256,605.0,605.0,532.0,4.0,4.0,4.0
3257,605.0,604.0,533.0,3.0,3.0,4.0
3258,604.0,604.0,533.0,4.0,4.0,3.0
3259,604.0,604.0,533.0,4.0,4.0,4.0
3260,604.0,605.0,533.0,4.0,4.0,4.0
3261,605.0,604.0,533.0,4.0,4.0,4.0
3262,604.0,604.0,532.0,4.0,4.0,4.0
3263,604.0,605.0,532.0,4.0,3.0,4.0
3264,605.0,605.0,533.0,4.0,4.0,4.0
3265,605.0,605.0,533.0,4.0,4.0,2.0
3266,605.0,605.0,533.0,4.0,4.0,4.0
3267,605.0,605.0,532.0,4.0,4.0,4.0
3268,605.0,605.0,532.0,4.0,4.0,4.0
3269,605.0,605.0,533.0,4.0,4.0,4.0
3270,605.0,605.0,533.0,4.0,3.0,4.0
3271,605.0,605.0,533.0,4.0,3.0,4.0
3272,605.0,605.0,532.0,4.0,3.0,4.0
3273,605.0,605.0,533.0,3.0,4.0,4.0
3274,605.0,604.0,533.0,4.0,4.0,4.0
3275,604.0,605.0,532.0,4.0,4.0,4.0
3276,605.0,604.0,532.0,4.0,4.0,4.0
3277,604.0,604.0,533.0,4.0,4.0,4.0
3278,604.0,605.0,533.0,5.0,4.0,5.0
3279,605.0,605.0,533.0,5.0,4.0,4.0
3280,605.0,605.0,533.0,4.0,4.0,2.0
3281,605.0,605.0,533.0,4.0,4.0,4.0
3282,605.0,605.0,533.0,4.0,4.0,4.0
3283,605.0,605.0,533.0,4.0,4.0,4.0
3284,605.0,605.0,533.0,4.0,4.0,3.0
3285,605.0,605.0,533.0,4.0,4.0,4.0
3286,605.0,605.0,532.0,4.0,4.0,4.0
3287,605.0,605.0,533.0,4.0,4.0,4.0
3288,605.0,604.0,532.0,4.0,5.0,4.0
3289,604.0,605.0,532.0,4.0,4.0,4.0
3290,605.0,605.0,533.0,4.0,4.0,4.0
3291,605.0,605.0,533.0,4.0,4.0,4.0
3292,605.0,605.0,532.0,4.0,4.0,4.0
3293,605.0,605.0,533.0,4.0,4.0,4.0
3294,605.0,605.0,533.0,4.0,4.0,4.0
3295,605.0,605.0,533.0,4.0,4.0,4.0
3296,605.0,605.0,533.0,4.0,4.0,4.0
3297,605.0,604.0,532.0,5.0,4.0,4.0
3298,604.0,605.0,533.0,4.0,4.0,4.0
3299,605.0,605.0,533.0,4.0,4.0,4.0
3300,605.0,605.0,533.0,4.0,4.0,4.0
3301,605.0,604.0,533.0,4.0,4.0,4.0
3302,604.0,604.0,532.0,4.0,4.0,4.0
3303,604.0,604.0,532.0,4.0,4.0,3.0
3304,604.0,605.0,532.0,4.0,4.0,4.0
3305,605.0,605.0,533.0,4.0,4.0,4.0
3306,605.0,604.0,533.0,4.0,3.0,3.0
3307,604.0,605.0,533.0,4.0,4.0,4.0
3308,605.0,605.0,533.0,4.0,5.0,4.0
3309,605.0,605.0,533.0,4.0,4.0,4.0
3310,605.0,605.0,532.0,4.0,4.0,4.0
3311,605.0,605.0,533.0,4.0,4.0,4.0
3312,605.0,605.0,533.0,4.0,3.0,3.0
3313,605.0,605.0,533.0,4.0,4.0,4.0
3314,605.0,604.0,533.0,4.0,4.0,4.0
3315,604.0,605.0,533.0,4.0,4.0,4.0
3316,605.0,604.0,533.0,4.0,4.0,4.0
3317,604.0,604.0,533.0,4.0,4.0,4.0
3318,604.0,604.0,532.0,4.0,4.0,4.0
3319,604.0,605.0,533.0,4.0,4.0,4.0
3320,605.0,604.0,532.0,4.0,3.0,5.0
3321,604.0,605.0,532.0,5.0,4.0,4.0
3322,605.0,605.0,533.0,4.0,4.0,4.0
3323,605.0,605.0,533.0,3.0,4.0,4.0
3324,605.0,605.0,533.0,4.0,4.0,4.0
3325,605.0,604.0,533.0,4.0,4.0,4.0
3326,604.0,605.0,533.0,4.0,4.0,4.0
3327,605.0,605.0,532.0,4.0,4.0,4.0
3328,605.0,604.0,533.0,4.0,5.0,4.0
3329,604.0,605.0,532.0,4.0,4.0,4.0
3330,605.0,605.0,533.0,4.0,4.0,4.0
3331,605.0,605.0,532.0,4.0,4.0,4.0
3332,605.0,604.0,532.0,4.0,4.0,4.0
3333,604.0,605.0,532.0,4.0,4.0,4.0
3334,605.0,604.0,533.0,4.0,4.0,3.0
3335,604.0,605.0,532.0,4.0,4.0,4.0
3336,605.0,605.0,532.0,4.0,4.0,4.0
3337,605.0,605.0,533.0,4.0,4.0,4.0
3338,605.0,605.0,533.0,4.0,4.0,4.0
3339,605.0,605.0,533.0,4.0,4.0,4.0
3340,605.0,605.0,533.0,4.0,4.0,4.0
3341,605.0,605.0,533.0,4.0,4.0,4.0
3342,605.0,605.0,533.0,4.0,4.0,4.0
3343,605.0,604.0,533.0,4.0,4.0,4.0
3344,604.0,605.0,532.0,4.0,4.0,4.0
3345,605.0,605.0,532.0,4.0,4.0,4.0
3346,605.0,606.0,532.0,4.0,4.0,4.0
3347,606.0,605.0,533.0,4.0,4.0,4.0
3348,605.0,605.0,532.0,4.0,4.0,4.0
3349,605.0,605.0,533.0,4.0,4.0,4.0
3350,605.0,605.0,533.0,4.0,4.0,4.0
3351,605.0,605.0,533.0,4.0,3.0,4.0
3352,605.0,605.0,533.0,4.0,4.0,4.0
3353,605.0,605.0,533.0,4.0,4.0,4.0
3354,605.0,605.0,533.0,3.0,4.0,4.0
3355,605.0,605.0,532.0,4.0,4.0,4.0
3356,605.0,605.0,532.0,4.0,3.0,4.0
3357,605.0,604.0,532.0,4.0,4.0,4.0
3358,604.0,605.0,533.0,5.0,4.0,4.0
3359,605.0,604.0,533.0,4.0,5.0,4.0
3360,604.0,605.0,533.0,4.0,4.0,4.0
3361,605.0,605.0,533.0,3.0,5.0,5.0
3362,605.0,605.0,533.0,3.0,4.0,4.0
3363,605.0,605.0,533.0,4.0,5.0,4.0
3364,605.0,605.0,533.0,5.0,4.0,4.0
3365,605.0,605.0,533.0,4.0,4.0,3.0
3366,605.0,605.0,533.0,3.0,4.0,4.0
3367,605.0,604.0,533.0,4.0,4.0,4.0
3368,604.0,604.0,532.0,3.0,3.0,4.0
3369,604.0,604.0,533.0,5.0,4.0,4.0
3370,604.0,605.0,532.0,3.0,4.0,4.0
3371,605.0,604.0,533.0,4.0,4.0,4.0
3372,604.0,605.0,533.0,3.0,4.0,4.0
3373,605.0,604.0,533.0,4.0,4.0,4.0
3374,604.0,605.0,533.0,3.0,4.0,4.0
3375,605.0,604.0,533.0,4.0,4.0,4.0
3376,604.0,605.0,532.0,4.0,4.0,4.0
3377,605.0,605.0,532.0,4.0,5.0,3.0
3378,605.0,605.0,532.0,4.0,4.0,4.0
3379,605.0,605.0,532.0,3.0,4.0,3.0
3380,605.0,605.0,532.0,4.0,4.0,4.0
3381,605.0,605.0,532.0,4.0,3.0,4.0
3382,605.0,605.0,532.0,4.0,4.0,4.0
3383,605.0,604.0,532.0,4.0,4.0,4.0
3384,604.0,605.0,533.0,3.0,4.0,4.0
3385,605.0,605.0,533.0,4.0,3.0,4.0
3386,605.0,605.0,532.0,4.0,4.0,4.0
3387,605.0,605.0,533.0,3.0,3.0,4.0
3388,605.0,605.0,532.0,3.0,4.0,4.0
3389,605.0,605.0,533.0,4.0,4.0,5.0
3390,605.0,605.0,532.0,4.0,4.0,4.0
3391,605.0,605.0,532.0,5.0,4.0,4.0
3392,605.0,605.0,533.0,4.0,4.0,4.0
3393,605.0,605.0,533.0,4.0,4.0,4.0
3394,605.0,605.0,533.0,4.0,4.0,4.0
3395,605.0,605.0,533.0,3.0,4.0,4.0
3396,605.0,605.0,533.0,4.0,4.0,4.0
3397,605.0,605.0,533.0,3.0,3.0,4.0
3398,605.0,604.0,533.0,4.0,4.0,4.0
3399,604.0,605.0,533.0,4.0,4.0,4.0
3400,605.0,605.0,532.0,4.0,4.0,4.0
3401,605.0,605.0,533.0,4.0,4.0,4.0
3402,605.0,605.0,532.0,5.0,4.0,4.0
3403,605.0,605.0,532.0,4.0,4.0,4.0
3404,605.0,605.0,532.0,4.0,4.0,4.0
3405,605.0,605.0,533.0,4.0,4.0,4.0
3406,605.0,606.0,533.0,4.0,4.0,4.0
3407,606.0,605.0,533.0,3.0,4.0,4.0
3408,605.0,605.0,533.0,4.0,4.0,4.0
3409,605.0,605.0,532.0,4.0,4.0,4.0
3410,605.0,605.0,532.0,4.0,4.0,5.0
3411,605.0,605.0,533.0,4.0,4.0,3.0
3412,605.0,605.0,532.0,4.0,4.0,4.0
3413,605.0,605.0,532.0,4.0,4.0,4.0
3414,605.0,604.0,533.0,4.0,4.0,4.0
3415,604.0,605.0,532.0,4.0,4.0,3.0
3416,605.0,605.0,533.0,3.0,4.0,4.0
3417,605.0,604.0,532.0,4.0,4.0,4.0
3418,604.0,605.0,533.0,3.0,4.0,3.0
3419,605.0,605.0,533.0,3.0,4.0,4.0
3420,605.0,605.0,533.0,4.0,4.0,4.0
3421,605.0,605.0,533.0,3.0,4.0,3.0
3422,605.0,605.0,533.0,4.0,3.0,4.0
3423,605.0,605.0,533.0,3.0,3.0,4.0
3424,605.0,604.0,533.0,4.0,4.0,4.0
3425,604.0,605.0,533.0,4.0,4.0,4.0
3426,605.0,605.0,533.0,4.0,4.0,4.0
3427,605.0,604.0,533.0,4.0,4.0,4.0
3428,604.0,604.0,533.0,3.0,3.0,4.0
3429,604.0,605.0,533.0,4.0,4.0,4.0
3430,605.0,605.0,533.0,4.0,4.0,4.0
3431,605.0,605.0,533.0,4.0,4.0,4.0
3432,605.0,605.0,532.0,4.0,4.0,4.0
3433,605.0,605.0,533.0,4.0,4.0,4.0
3434,605.0,605.0,533.0,4.0,4.0,4.0
3435,605.0,605.0,533.0,4.0,4.0,4.0
3436,605.0,605.0,533.0,3.0,4.0,4.0
3437,605.0,604.0,533.0,4.0,4.0,4.0
3438,604.0,605.0,532.0,4.0,4.0,4.0
3439,605.0,605.0,533.0,4.0,4.0,4.0
3440,605.0,604.0,533.0,4.0,4.0,4.0
3441,604.0,605.0,533.0,4.0,4.0,4.0
3442,605.0,605.0,533.0,4.0,4.0,4.0
3443,605.0,605.0,533.0,3.0,4.0,4.0
3444,605.0,605.0,533.0,3.0,4.0,4.0
3445,605.0,605.0,533.0,4.0,4.0,5.0
3446,605.0,605.0,533.0,4.0,4.0,4.0
3447,605.0,605.0,533.0,4.0,4.0,4.0
3448,605.0,605.0,532.0,4.0,4.0,4.0
3449,605.0,605.0,533.0,4.0,4.0,4.0
3450,605.0,605.0,533.0,4.0,4.0,4.0
3451,605.0,605.0,533.0,4.0,4.0,4.0
3452,605.0,605.0,532.0,4.0,4.0,5.0
3453,605.0,605.0,533.0,4.0,4.0,4.0
3454,605.0,605.0,533.0,4.0,4.0,4.0
3455,605.0,605.0,532.0,4.0,4.0,4.0
