,x,y,z,muscle1,muscle2,muscle3
0,595.0,598.0,554.0,114.0,95.0,131.0
1,598.0,600.0,555.0,113.0,94.0,130.0
2,600.0,599.0,555.0,112.0,94.0,129.0
3,599.0,600.0,556.0,110.0,93.0,128.0
4,600.0,599.0,555.0,109.0,92.0,127.0
5,599.0,599.0,556.0,108.0,91.0,126.0
6,599.0,599.0,555.0,107.0,90.0,124.0
7,599.0,599.0,555.0,106.0,90.0,123.0
8,599.0,598.0,555.0,105.0,89.0,122.0
9,598.0,598.0,555.0,106.0,88.0,120.0
10,598.0,599.0,555.0,104.0,87.0,120.0
11,599.0,599.0,555.0,102.0,86.0,118.0
12,599.0,599.0,555.0,101.0,85.0,117.0
13,599.0,599.0,556.0,101.0,85.0,116.0
14,599.0,599.0,556.0,99.0,84.0,116.0
15,599.0,598.0,555.0,99.0,84.0,114.0
16,598.0,598.0,555.0,98.0,83.0,114.0
17,598.0,599.0,555.0,97.0,83.0,112.0
18,599.0,599.0,555.0,96.0,81.0,111.0
19,599.0,599.0,554.0,96.0,81.0,110.0
20,599.0,599.0,554.0,94.0,80.0,109.0
21,599.0,598.0,554.0,94.0,80.0,109.0
22,598.0,598.0,554.0,93.0,79.0,107.0
23,598.0,598.0,553.0,92.0,78.0,106.0
24,598.0,597.0,553.0,91.0,77.0,105.0
25,597.0,597.0,554.0,90.0,77.0,104.0
26,597.0,597.0,553.0,90.0,76.0,103.0
27,597.0,597.0,552.0,88.0,75.0,102.0
28,597.0,597.0,552.0,88.0,75.0,101.0
29,597.0,597.0,552.0,86.0,74.0,100.0
30,597.0,597.0,552.0,86.0,74.0,100.0
31,597.0,596.0,552.0,86.0,72.0,100.0
32,596.0,596.0,553.0,85.0,72.0,98.0
33,596.0,594.0,552.0,84.0,72.0,97.0
34,594.0,595.0,552.0,82.0,71.0,96.0
35,595.0,597.0,553.0,82.0,70.0,95.0
36,597.0,597.0,554.0,81.0,70.0,94.0
37,597.0,596.0,553.0,80.0,69.0,93.0
38,596.0,596.0,553.0,80.0,68.0,93.0
39,596.0,597.0,553.0,80.0,85.0,92.0
40,597.0,598.0,553.0,79.0,84.0,91.0
41,598.0,598.0,554.0,78.0,82.0,91.0
42,598.0,598.0,553.0,78.0,82.0,90.0
43,598.0,598.0,552.0,77.0,80.0,88.0
44,598.0,598.0,553.0,76.0,80.0,88.0
45,598.0,599.0,553.0,76.0,78.0,88.0
46,599.0,598.0,552.0,75.0,78.0,87.0
47,598.0,598.0,553.0,74.0,77.0,86.0
48,598.0,598.0,553.0,73.0,76.0,85.0
49,598.0,597.0,552.0,72.0,75.0,84.0
50,597.0,597.0,552.0,71.0,75.0,84.0
51,597.0,597.0,552.0,71.0,74.0,83.0
52,597.0,597.0,551.0,71.0,73.0,82.0
53,597.0,598.0,552.0,71.0,73.0,81.0
54,598.0,599.0,551.0,70.0,72.0,80.0
55,599.0,599.0,551.0,69.0,71.0,80.0
56,599.0,600.0,551.0,69.0,71.0,79.0
57,600.0,599.0,550.0,68.0,69.0,79.0
58,599.0,599.0,550.0,68.0,69.0,78.0
59,599.0,600.0,551.0,67.0,69.0,95.0
60,600.0,601.0,552.0,67.0,69.0,132.0
61,601.0,601.0,552.0,65.0,68.0,130.0
62,601.0,600.0,550.0,65.0,67.0,128.0
63,600.0,600.0,551.0,64.0,67.0,126.0
64,600.0,601.0,551.0,64.0,66.0,125.0
65,601.0,601.0,551.0,64.0,66.0,123.0
66,601.0,599.0,550.0,63.0,65.0,122.0
67,599.0,599.0,550.0,62.0,65.0,121.0
68,599.0,599.0,551.0,62.0,64.0,119.0
69,599.0,600.0,550.0,61.0,64.0,118.0
70,600.0,599.0,550.0,61.0,62.0,117.0
71,599.0,598.0,550.0,60.0,62.0,116.0
72,598.0,598.0,550.0,60.0,62.0,114.0
73,598.0,600.0,550.0,59.0,61.0,113.0
74,600.0,600.0,550.0,58.0,62.0,111.0
75,600.0,601.0,550.0,58.0,60.0,111.0
76,601.0,601.0,549.0,58.0,60.0,109.0
77,601.0,601.0,550.0,58.0,60.0,107.0
78,601.0,601.0,550.0,57.0,58.0,107.0
79,601.0,602.0,550.0,55.0,58.0,106.0
80,602.0,602.0,549.0,56.0,58.0,105.0
81,602.0,601.0,549.0,55.0,57.0,104.0
82,601.0,606.0,551.0,55.0,56.0,103.0
83,606.0,606.0,551.0,54.0,55.0,102.0
84,606.0,605.0,551.0,54.0,56.0,101.0
85,605.0,604.0,550.0,53.0,55.0,99.0
86,604.0,603.0,550.0,53.0,56.0,99.0
87,603.0,604.0,550.0,53.0,54.0,98.0
88,604.0,604.0,551.0,52.0,53.0,97.0
89,604.0,603.0,550.0,51.0,56.0,97.0
90,603.0,602.0,550.0,52.0,57.0,96.0
91,602.0,603.0,550.0,52.0,56.0,95.0
92,603.0,602.0,551.0,50.0,56.0,93.0
93,602.0,602.0,549.0,50.0,55.0,92.0
94,602.0,601.0,549.0,49.0,55.0,91.0
95,601.0,601.0,549.0,49.0,54.0,91.0
96,601.0,602.0,550.0,49.0,53.0,90.0
97,602.0,602.0,549.0,54.0,53.0,89.0
98,602.0,601.0,549.0,54.0,52.0,87.0
99,601.0,600.0,548.0,53.0,52.0,87.0
100,600.0,599.0,548.0,53.0,52.0,86.0
101,601.0,601.0,544.0,44.0,84.0,108.0
102,601.0,601.0,544.0,45.0,83.0,107.0
103,601.0,600.0,544.0,43.0,82.0,106.0
104,600.0,600.0,543.0,43.0,81.0,105.0
105,600.0,600.0,543.0,43.0,80.0,104.0
106,600.0,599.0,542.0,43.0,80.0,102.0
107,599.0,600.0,543.0,42.0,80.0,101.0
108,600.0,600.0,543.0,41.0,79.0,101.0
109,600.0,600.0,543.0,41.0,78.0,100.0
110,600.0,601.0,544.0,41.0,77.0,99.0
111,601.0,601.0,544.0,41.0,77.0,97.0
112,601.0,601.0,545.0,40.0,76.0,97.0
113,601.0,601.0,545.0,39.0,75.0,96.0
114,601.0,601.0,544.0,39.0,75.0,95.0
115,601.0,601.0,545.0,39.0,74.0,94.0
116,601.0,602.0,545.0,39.0,74.0,93.0
117,602.0,602.0,545.0,39.0,73.0,92.0
118,602.0,602.0,544.0,38.0,72.0,91.0
119,602.0,602.0,545.0,38.0,71.0,90.0
120,602.0,603.0,545.0,38.0,71.0,89.0
121,603.0,603.0,545.0,38.0,70.0,126.0
122,603.0,603.0,545.0,38.0,70.0,124.0
123,603.0,603.0,545.0,39.0,69.0,122.0
124,603.0,603.0,545.0,38.0,69.0,120.0
125,603.0,604.0,545.0,38.0,68.0,119.0
126,604.0,604.0,546.0,38.0,67.0,117.0
127,604.0,604.0,546.0,37.0,66.0,117.0
128,604.0,604.0,546.0,37.0,66.0,115.0
129,604.0,604.0,546.0,36.0,68.0,114.0
130,604.0,603.0,546.0,36.0,65.0,112.0
131,603.0,603.0,547.0,36.0,64.0,111.0
132,603.0,604.0,547.0,36.0,64.0,111.0
133,604.0,604.0,547.0,35.0,63.0,109.0
134,604.0,604.0,547.0,35.0,62.0,108.0
135,604.0,604.0,547.0,35.0,62.0,107.0
136,604.0,604.0,546.0,35.0,62.0,106.0
137,604.0,604.0,546.0,34.0,61.0,105.0
138,604.0,604.0,547.0,34.0,65.0,103.0
139,604.0,603.0,546.0,34.0,64.0,103.0
140,603.0,603.0,547.0,33.0,63.0,101.0
141,603.0,603.0,547.0,33.0,63.0,100.0
142,603.0,602.0,546.0,33.0,62.0,100.0
143,602.0,602.0,547.0,32.0,62.0,98.0
144,602.0,602.0,547.0,33.0,61.0,97.0
145,602.0,602.0,547.0,32.0,60.0,96.0
146,602.0,602.0,547.0,33.0,60.0,95.0
147,602.0,602.0,547.0,31.0,60.0,94.0
148,602.0,602.0,547.0,32.0,58.0,94.0
149,602.0,603.0,547.0,31.0,59.0,92.0
150,603.0,603.0,547.0,30.0,57.0,93.0
151,603.0,603.0,547.0,31.0,57.0,90.0
152,603.0,603.0,547.0,31.0,56.0,90.0
153,603.0,604.0,547.0,30.0,56.0,89.0
154,604.0,604.0,547.0,30.0,56.0,88.0
155,604.0,604.0,546.0,29.0,55.0,87.0
156,604.0,603.0,547.0,29.0,55.0,86.0
157,603.0,603.0,546.0,29.0,52.0,86.0
158,603.0,603.0,547.0,28.0,54.0,85.0
159,603.0,604.0,546.0,29.0,53.0,84.0
160,604.0,603.0,546.0,29.0,57.0,84.0
161,603.0,604.0,547.0,29.0,57.0,83.0
162,604.0,604.0,546.0,28.0,56.0,82.0
163,604.0,604.0,545.0,28.0,55.0,82.0
164,604.0,603.0,545.0,27.0,55.0,80.0
165,603.0,603.0,545.0,27.0,54.0,79.0
166,603.0,603.0,546.0,27.0,54.0,79.0
167,603.0,603.0,546.0,27.0,53.0,79.0
168,603.0,603.0,546.0,27.0,53.0,78.0
169,603.0,602.0,546.0,26.0,53.0,77.0
170,602.0,603.0,546.0,27.0,52.0,76.0
171,603.0,603.0,545.0,26.0,51.0,76.0
172,603.0,603.0,545.0,26.0,51.0,74.0
173,603.0,602.0,545.0,25.0,51.0,74.0
174,602.0,603.0,544.0,25.0,50.0,73.0
175,603.0,602.0,544.0,25.0,50.0,73.0
176,602.0,602.0,544.0,26.0,49.0,74.0
177,602.0,601.0,544.0,25.0,50.0,72.0
178,601.0,601.0,545.0,25.0,48.0,71.0
179,601.0,601.0,545.0,23.0,49.0,70.0
180,601.0,600.0,545.0,24.0,47.0,70.0
181,600.0,601.0,545.0,24.0,48.0,69.0
182,601.0,601.0,545.0,25.0,47.0,70.0
183,601.0,600.0,545.0,113.0,47.0,68.0
184,600.0,600.0,546.0,111.0,46.0,68.0
185,600.0,600.0,545.0,110.0,46.0,67.0
186,600.0,600.0,544.0,108.0,46.0,66.0
187,600.0,600.0,545.0,107.0,46.0,66.0
188,600.0,601.0,545.0,106.0,45.0,65.0
189,601.0,600.0,545.0,105.0,45.0,63.0
190,600.0,601.0,545.0,103.0,45.0,64.0
191,601.0,601.0,544.0,103.0,44.0,64.0
192,601.0,602.0,545.0,101.0,44.0,63.0
193,602.0,602.0,544.0,100.0,43.0,62.0
194,602.0,602.0,544.0,100.0,43.0,62.0
195,602.0,602.0,544.0,99.0,42.0,61.0
196,602.0,602.0,543.0,97.0,42.0,60.0
197,602.0,602.0,543.0,97.0,42.0,60.0
198,602.0,601.0,543.0,94.0,42.0,60.0
199,601.0,601.0,543.0,95.0,41.0,59.0
200,601.0,601.0,544.0,94.0,41.0,60.0
201,601.0,601.0,543.0,93.0,40.0,58.0
202,601.0,601.0,543.0,92.0,40.0,58.0
203,601.0,602.0,544.0,91.0,40.0,58.0
204,602.0,602.0,543.0,90.0,39.0,57.0
205,602.0,602.0,543.0,89.0,39.0,56.0
206,602.0,602.0,543.0,89.0,39.0,55.0
207,602.0,602.0,543.0,88.0,39.0,55.0
208,602.0,602.0,543.0,86.0,38.0,55.0
209,602.0,602.0,543.0,85.0,38.0,54.0
210,602.0,602.0,543.0,85.0,38.0,54.0
211,602.0,603.0,544.0,84.0,45.0,67.0
212,603.0,603.0,544.0,84.0,44.0,66.0
213,603.0,603.0,544.0,83.0,44.0,65.0
214,603.0,603.0,544.0,82.0,40.0,65.0
215,603.0,603.0,544.0,80.0,43.0,64.0
216,603.0,603.0,544.0,80.0,43.0,64.0
217,603.0,604.0,544.0,80.0,42.0,63.0
218,604.0,604.0,544.0,79.0,42.0,62.0
219,604.0,604.0,544.0,78.0,41.0,62.0
220,604.0,604.0,544.0,78.0,41.0,61.0
221,604.0,603.0,544.0,77.0,40.0,60.0
222,603.0,604.0,544.0,76.0,40.0,61.0
223,604.0,604.0,544.0,75.0,40.0,61.0
224,604.0,603.0,544.0,75.0,40.0,61.0
225,603.0,604.0,543.0,74.0,39.0,59.0
226,604.0,605.0,545.0,73.0,39.0,59.0
227,605.0,606.0,544.0,73.0,39.0,81.0
228,606.0,604.0,543.0,71.0,38.0,83.0
229,604.0,604.0,544.0,71.0,38.0,82.0
230,604.0,604.0,545.0,70.0,38.0,81.0
231,604.0,603.0,545.0,69.0,37.0,81.0
232,603.0,602.0,545.0,70.0,37.0,79.0
233,602.0,601.0,545.0,69.0,37.0,79.0
234,601.0,601.0,546.0,69.0,36.0,78.0
235,601.0,603.0,547.0,68.0,36.0,77.0
236,603.0,603.0,546.0,67.0,34.0,76.0
237,603.0,603.0,545.0,66.0,35.0,75.0
238,603.0,603.0,545.0,66.0,41.0,135.0
239,603.0,603.0,545.0,65.0,43.0,132.0
240,603.0,602.0,545.0,65.0,43.0,130.0
241,602.0,602.0,545.0,64.0,42.0,128.0
242,602.0,603.0,545.0,64.0,42.0,128.0
243,603.0,604.0,547.0,61.0,42.0,125.0
244,604.0,604.0,547.0,63.0,41.0,124.0
245,604.0,602.0,546.0,62.0,42.0,123.0
246,602.0,603.0,545.0,61.0,42.0,122.0
247,603.0,602.0,546.0,61.0,42.0,120.0
248,602.0,602.0,546.0,61.0,42.0,119.0
249,602.0,601.0,545.0,59.0,42.0,118.0
250,601.0,601.0,545.0,59.0,42.0,116.0
251,601.0,602.0,546.0,58.0,40.0,115.0
252,602.0,602.0,546.0,58.0,40.0,115.0
253,602.0,602.0,546.0,57.0,39.0,112.0
254,602.0,603.0,546.0,57.0,62.0,153.0
255,603.0,602.0,545.0,57.0,61.0,151.0
256,602.0,602.0,545.0,55.0,60.0,149.0
257,602.0,601.0,545.0,55.0,60.0,147.0
258,601.0,601.0,546.0,55.0,59.0,146.0
259,601.0,601.0,546.0,54.0,59.0,144.0
260,601.0,601.0,545.0,54.0,58.0,143.0
261,601.0,601.0,545.0,53.0,57.0,141.0
262,601.0,601.0,545.0,53.0,57.0,139.0
263,601.0,601.0,546.0,52.0,56.0,138.0
264,601.0,601.0,546.0,51.0,55.0,136.0
265,601.0,601.0,546.0,52.0,55.0,134.0
266,601.0,601.0,546.0,51.0,54.0,133.0
267,601.0,601.0,546.0,65.0,54.0,132.0
268,601.0,601.0,546.0,64.0,53.0,130.0
269,601.0,601.0,545.0,62.0,53.0,129.0
270,601.0,601.0,545.0,62.0,52.0,128.0
271,601.0,602.0,544.0,61.0,52.0,128.0
272,602.0,601.0,544.0,61.0,52.0,125.0
273,601.0,601.0,544.0,60.0,51.0,123.0
274,601.0,601.0,545.0,59.0,50.0,122.0
275,601.0,602.0,545.0,59.0,49.0,121.0
276,602.0,602.0,545.0,58.0,49.0,120.0
277,602.0,601.0,546.0,58.0,49.0,118.0
278,601.0,602.0,546.0,57.0,48.0,117.0
279,602.0,602.0,546.0,56.0,48.0,116.0
280,602.0,602.0,547.0,56.0,50.0,115.0
281,602.0,602.0,546.0,56.0,47.0,113.0
282,602.0,602.0,546.0,55.0,47.0,113.0
283,602.0,602.0,545.0,54.0,46.0,111.0
284,602.0,602.0,545.0,54.0,46.0,110.0
285,602.0,601.0,545.0,53.0,47.0,110.0
286,601.0,601.0,544.0,53.0,47.0,108.0
287,601.0,601.0,544.0,52.0,46.0,107.0
288,601.0,602.0,544.0,53.0,46.0,106.0
289,602.0,603.0,544.0,51.0,45.0,105.0
290,603.0,603.0,544.0,52.0,45.0,104.0
291,603.0,603.0,544.0,50.0,44.0,103.0
292,603.0,604.0,545.0,135.0,44.0,101.0
293,604.0,603.0,544.0,144.0,44.0,101.0
294,603.0,603.0,544.0,142.0,43.0,99.0
295,603.0,603.0,544.0,140.0,42.0,99.0
296,603.0,604.0,543.0,139.0,43.0,98.0
297,604.0,603.0,544.0,137.0,42.0,97.0
298,603.0,603.0,544.0,135.0,42.0,96.0
299,603.0,603.0,545.0,134.0,41.0,96.0
300,603.0,602.0,545.0,133.0,42.0,94.0
301,602.0,603.0,545.0,131.0,41.0,93.0
302,603.0,603.0,544.0,129.0,41.0,92.0
303,603.0,603.0,543.0,128.0,39.0,91.0
304,603.0,602.0,544.0,128.0,40.0,91.0
305,602.0,602.0,544.0,126.0,39.0,89.0
306,602.0,603.0,544.0,125.0,40.0,88.0
307,603.0,602.0,544.0,122.0,39.0,87.0
308,602.0,602.0,544.0,122.0,38.0,87.0
309,602.0,601.0,543.0,121.0,38.0,86.0
310,601.0,601.0,544.0,119.0,38.0,85.0
311,601.0,602.0,544.0,118.0,38.0,84.0
312,602.0,602.0,545.0,117.0,37.0,84.0
313,602.0,603.0,544.0,115.0,36.0,82.0
314,603.0,602.0,545.0,114.0,37.0,82.0
315,602.0,602.0,545.0,113.0,36.0,81.0
316,602.0,602.0,544.0,112.0,36.0,81.0
317,602.0,602.0,544.0,111.0,36.0,80.0
318,602.0,602.0,543.0,110.0,35.0,79.0
319,602.0,602.0,543.0,109.0,35.0,78.0
320,602.0,602.0,543.0,108.0,35.0,77.0
321,602.0,602.0,544.0,107.0,34.0,77.0
322,602.0,602.0,543.0,106.0,102.0,94.0
323,602.0,601.0,544.0,105.0,100.0,92.0
324,601.0,602.0,544.0,103.0,99.0,92.0
325,602.0,601.0,544.0,103.0,98.0,90.0
326,601.0,600.0,544.0,102.0,97.0,90.0
327,600.0,601.0,544.0,101.0,95.0,89.0
328,601.0,601.0,544.0,100.0,94.0,88.0
329,601.0,601.0,544.0,99.0,94.0,87.0
330,601.0,601.0,544.0,99.0,94.0,95.0
331,601.0,601.0,545.0,97.0,93.0,94.0
332,601.0,601.0,545.0,96.0,92.0,93.0
333,601.0,601.0,545.0,96.0,91.0,92.0
334,601.0,601.0,544.0,94.0,90.0,91.0
335,601.0,601.0,545.0,94.0,89.0,91.0
336,601.0,601.0,545.0,92.0,92.0,96.0
337,601.0,601.0,545.0,92.0,108.0,95.0
338,601.0,602.0,546.0,91.0,106.0,94.0
339,602.0,603.0,545.0,90.0,106.0,93.0
340,603.0,602.0,546.0,90.0,103.0,91.0
341,602.0,602.0,546.0,89.0,102.0,90.0
342,602.0,602.0,546.0,90.0,102.0,90.0
343,602.0,602.0,547.0,87.0,100.0,87.0
344,602.0,602.0,547.0,87.0,99.0,87.0
345,602.0,602.0,547.0,86.0,99.0,87.0
346,602.0,603.0,547.0,84.0,97.0,86.0
347,603.0,603.0,547.0,85.0,98.0,85.0
348,603.0,603.0,547.0,84.0,96.0,84.0
349,603.0,603.0,547.0,83.0,95.0,83.0
350,603.0,604.0,547.0,82.0,94.0,83.0
351,604.0,603.0,547.0,81.0,92.0,82.0
352,603.0,604.0,547.0,81.0,91.0,81.0
353,604.0,604.0,547.0,80.0,91.0,80.0
354,604.0,604.0,546.0,79.0,90.0,79.0
355,604.0,604.0,546.0,78.0,89.0,78.0
356,604.0,603.0,546.0,78.0,88.0,78.0
357,603.0,603.0,546.0,77.0,87.0,76.0
358,603.0,603.0,546.0,77.0,86.0,76.0
359,603.0,603.0,546.0,76.0,86.0,75.0
360,603.0,602.0,546.0,75.0,85.0,75.0
361,602.0,603.0,546.0,75.0,84.0,74.0
362,603.0,603.0,546.0,74.0,83.0,73.0
363,603.0,603.0,546.0,73.0,83.0,73.0
364,603.0,604.0,545.0,73.0,82.0,72.0
365,604.0,604.0,546.0,73.0,82.0,104.0
366,604.0,603.0,546.0,71.0,80.0,103.0
367,603.0,604.0,546.0,70.0,80.0,102.0
368,604.0,603.0,546.0,70.0,79.0,100.0
369,603.0,603.0,546.0,70.0,78.0,100.0
370,603.0,603.0,545.0,69.0,79.0,98.0
371,603.0,602.0,545.0,68.0,77.0,97.0
372,602.0,602.0,545.0,68.0,76.0,97.0
373,602.0,602.0,545.0,67.0,76.0,95.0
374,602.0,603.0,545.0,67.0,75.0,94.0
375,603.0,603.0,546.0,72.0,74.0,93.0
376,603.0,602.0,546.0,71.0,73.0,92.0
377,602.0,602.0,545.0,70.0,73.0,91.0
378,602.0,602.0,545.0,70.0,71.0,90.0
379,602.0,602.0,544.0,69.0,71.0,89.0
380,602.0,602.0,544.0,68.0,71.0,89.0
381,602.0,603.0,544.0,68.0,70.0,87.0
382,603.0,602.0,544.0,67.0,69.0,87.0
383,602.0,603.0,544.0,67.0,69.0,86.0
384,603.0,602.0,544.0,66.0,69.0,85.0
385,602.0,603.0,545.0,65.0,68.0,84.0
386,603.0,603.0,544.0,65.0,67.0,83.0
387,603.0,602.0,544.0,65.0,67.0,82.0
388,602.0,602.0,543.0,64.0,65.0,81.0
389,602.0,603.0,543.0,63.0,65.0,80.0
390,603.0,604.0,544.0,63.0,65.0,80.0
391,604.0,603.0,544.0,62.0,65.0,80.0
392,603.0,602.0,543.0,61.0,64.0,82.0
393,602.0,602.0,542.0,61.0,62.0,81.0
394,602.0,603.0,543.0,60.0,61.0,80.0
395,603.0,602.0,542.0,60.0,62.0,79.0
396,602.0,602.0,542.0,59.0,61.0,78.0
397,602.0,602.0,542.0,59.0,60.0,78.0
398,602.0,602.0,543.0,58.0,60.0,77.0
399,602.0,601.0,543.0,58.0,59.0,76.0
400,601.0,600.0,542.0,58.0,59.0,76.0
401,600.0,600.0,541.0,56.0,58.0,74.0
402,600.0,601.0,543.0,57.0,58.0,74.0
403,601.0,603.0,543.0,56.0,57.0,73.0
404,603.0,603.0,543.0,55.0,57.0,72.0
405,603.0,603.0,544.0,55.0,57.0,71.0
406,603.0,603.0,544.0,55.0,55.0,71.0
407,603.0,603.0,544.0,54.0,56.0,73.0
408,603.0,602.0,543.0,53.0,55.0,72.0
409,602.0,601.0,543.0,52.0,55.0,72.0
410,601.0,602.0,543.0,52.0,54.0,71.0
411,602.0,602.0,544.0,52.0,55.0,70.0
412,602.0,602.0,543.0,52.0,54.0,70.0
413,602.0,602.0,544.0,51.0,54.0,69.0
414,602.0,602.0,543.0,51.0,52.0,69.0
415,602.0,602.0,543.0,51.0,53.0,68.0
416,602.0,602.0,544.0,50.0,52.0,67.0
417,602.0,601.0,544.0,50.0,52.0,67.0
418,601.0,601.0,545.0,50.0,51.0,66.0
419,601.0,601.0,545.0,49.0,51.0,66.0
420,601.0,601.0,544.0,48.0,50.0,65.0
421,601.0,600.0,544.0,48.0,50.0,64.0
422,600.0,600.0,544.0,48.0,49.0,64.0
423,600.0,600.0,544.0,47.0,49.0,63.0
424,600.0,601.0,544.0,47.0,49.0,62.0
425,601.0,601.0,544.0,46.0,48.0,62.0
426,601.0,600.0,544.0,46.0,48.0,62.0
427,600.0,599.0,544.0,46.0,48.0,61.0
428,599.0,599.0,544.0,45.0,47.0,60.0
429,599.0,599.0,545.0,44.0,47.0,61.0
430,599.0,599.0,545.0,45.0,47.0,60.0
431,599.0,600.0,546.0,44.0,47.0,59.0
432,600.0,600.0,546.0,44.0,46.0,57.0
433,600.0,600.0,546.0,43.0,46.0,62.0
434,600.0,600.0,546.0,43.0,46.0,61.0
435,600.0,600.0,547.0,42.0,45.0,60.0
436,600.0,600.0,547.0,42.0,45.0,59.0
437,600.0,600.0,547.0,42.0,45.0,59.0
438,600.0,601.0,548.0,42.0,44.0,59.0
439,601.0,601.0,549.0,40.0,43.0,58.0
440,601.0,602.0,549.0,40.0,43.0,57.0
441,602.0,602.0,548.0,40.0,42.0,57.0
442,602.0,602.0,548.0,40.0,41.0,56.0
443,602.0,602.0,547.0,67.0,53.0,88.0
444,602.0,603.0,548.0,65.0,52.0,86.0
445,603.0,604.0,548.0,65.0,52.0,86.0
446,604.0,603.0,548.0,64.0,51.0,85.0
447,603.0,604.0,548.0,63.0,51.0,85.0
448,604.0,604.0,548.0,61.0,50.0,84.0
449,604.0,604.0,548.0,62.0,49.0,82.0
450,604.0,604.0,548.0,61.0,50.0,81.0
451,604.0,605.0,549.0,60.0,48.0,81.0
452,605.0,605.0,548.0,60.0,48.0,79.0
453,605.0,605.0,548.0,60.0,48.0,79.0
454,605.0,606.0,549.0,59.0,47.0,77.0
455,606.0,605.0,548.0,58.0,47.0,77.0
456,605.0,606.0,548.0,58.0,46.0,77.0
457,606.0,605.0,548.0,57.0,46.0,76.0
458,605.0,605.0,547.0,56.0,45.0,75.0
459,605.0,605.0,548.0,56.0,51.0,110.0
460,605.0,605.0,547.0,55.0,50.0,108.0
461,605.0,604.0,547.0,54.0,51.0,106.0
462,604.0,604.0,546.0,54.0,49.0,106.0
463,604.0,604.0,547.0,54.0,50.0,104.0
464,604.0,604.0,548.0,54.0,48.0,103.0
465,604.0,602.0,547.0,53.0,48.0,102.0
466,602.0,603.0,547.0,53.0,48.0,100.0
467,603.0,602.0,547.0,52.0,47.0,99.0
468,602.0,602.0,547.0,51.0,62.0,98.0
469,602.0,602.0,546.0,50.0,62.0,98.0
470,602.0,602.0,546.0,50.0,61.0,97.0
471,602.0,602.0,546.0,50.0,61.0,96.0
472,602.0,601.0,546.0,50.0,60.0,94.0
473,601.0,600.0,546.0,48.0,59.0,94.0
474,600.0,602.0,547.0,49.0,132.0,175.0
475,602.0,600.0,546.0,48.0,130.0,172.0
476,600.0,600.0,546.0,48.0,128.0,170.0
477,600.0,601.0,546.0,48.0,127.0,167.0
478,601.0,601.0,545.0,47.0,126.0,165.0
479,601.0,600.0,545.0,46.0,124.0,163.0
480,600.0,600.0,545.0,46.0,123.0,161.0
481,600.0,600.0,545.0,46.0,121.0,160.0
482,600.0,600.0,544.0,45.0,120.0,158.0
483,600.0,601.0,545.0,45.0,119.0,156.0
484,601.0,601.0,545.0,44.0,117.0,154.0
485,601.0,601.0,545.0,44.0,116.0,152.0
486,601.0,600.0,544.0,43.0,115.0,150.0
487,600.0,601.0,545.0,43.0,114.0,149.0
488,601.0,601.0,545.0,43.0,123.0,207.0
489,601.0,601.0,544.0,42.0,122.0,204.0
490,601.0,602.0,544.0,42.0,120.0,201.0
491,602.0,602.0,544.0,41.0,119.0,198.0
492,602.0,601.0,544.0,41.0,118.0,196.0
493,601.0,601.0,544.0,41.0,116.0,194.0
494,601.0,602.0,544.0,40.0,116.0,191.0
495,602.0,601.0,544.0,40.0,113.0,189.0
496,601.0,602.0,545.0,39.0,113.0,187.0
497,602.0,602.0,545.0,39.0,111.0,185.0
498,602.0,602.0,545.0,39.0,110.0,183.0
499,602.0,602.0,545.0,38.0,109.0,181.0
500,602.0,600.0,544.0,38.0,108.0,179.0
501,600.0,603.0,546.0,38.0,107.0,177.0
502,603.0,603.0,547.0,38.0,105.0,175.0
503,603.0,601.0,545.0,38.0,105.0,172.0
504,601.0,601.0,545.0,37.0,103.0,171.0
505,601.0,601.0,547.0,36.0,134.0,241.0
506,601.0,600.0,546.0,43.0,132.0,237.0
507,600.0,600.0,546.0,119.0,130.0,233.0
508,600.0,600.0,547.0,117.0,128.0,230.0
509,600.0,599.0,547.0,116.0,127.0,227.0
510,599.0,599.0,546.0,115.0,125.0,224.0
511,599.0,600.0,548.0,113.0,124.0,222.0
512,600.0,600.0,547.0,112.0,122.0,219.0
513,600.0,599.0,546.0,110.0,122.0,216.0
514,599.0,599.0,546.0,109.0,121.0,215.0
515,599.0,600.0,547.0,108.0,118.0,211.0
516,600.0,599.0,546.0,107.0,118.0,208.0
517,599.0,600.0,546.0,106.0,116.0,206.0
518,600.0,601.0,546.0,104.0,114.0,204.0
519,601.0,601.0,547.0,103.0,114.0,201.0
520,601.0,601.0,545.0,102.0,113.0,198.0
521,601.0,602.0,546.0,102.0,112.0,197.0
522,602.0,601.0,546.0,100.0,110.0,194.0
523,601.0,602.0,546.0,100.0,108.0,192.0
524,602.0,603.0,546.0,98.0,108.0,190.0
525,603.0,603.0,546.0,97.0,107.0,188.0
526,603.0,603.0,546.0,96.0,106.0,185.0
527,603.0,602.0,546.0,96.0,105.0,183.0
528,602.0,603.0,546.0,94.0,103.0,181.0
529,603.0,605.0,548.0,93.0,102.0,180.0
530,605.0,604.0,546.0,92.0,102.0,178.0
531,604.0,604.0,546.0,91.0,100.0,176.0
532,604.0,603.0,546.0,91.0,100.0,174.0
533,603.0,603.0,546.0,93.0,98.0,172.0
534,603.0,604.0,546.0,92.0,98.0,171.0
535,604.0,603.0,546.0,92.0,96.0,169.0
536,603.0,603.0,546.0,90.0,96.0,167.0
537,603.0,603.0,547.0,90.0,94.0,165.0
538,603.0,603.0,547.0,89.0,93.0,164.0
539,603.0,603.0,546.0,88.0,93.0,163.0
540,603.0,604.0,546.0,87.0,92.0,160.0
541,604.0,603.0,546.0,86.0,91.0,159.0
542,603.0,603.0,545.0,85.0,90.0,157.0
543,603.0,602.0,546.0,84.0,90.0,156.0
544,602.0,602.0,546.0,84.0,88.0,154.0
545,602.0,602.0,546.0,83.0,88.0,152.0
546,602.0,602.0,546.0,83.0,87.0,150.0
547,602.0,601.0,546.0,81.0,86.0,149.0
548,601.0,601.0,546.0,80.0,85.0,148.0
549,601.0,601.0,546.0,80.0,85.0,146.0
550,601.0,602.0,546.0,79.0,83.0,145.0
551,602.0,601.0,547.0,78.0,83.0,143.0
552,601.0,602.0,547.0,78.0,82.0,142.0
553,602.0,601.0,546.0,77.0,81.0,140.0
554,601.0,601.0,546.0,76.0,80.0,139.0
555,601.0,601.0,546.0,76.0,80.0,138.0
556,601.0,601.0,546.0,75.0,86.0,136.0
557,601.0,601.0,546.0,74.0,85.0,135.0
558,601.0,602.0,546.0,74.0,84.0,133.0
559,602.0,602.0,547.0,73.0,84.0,132.0
560,602.0,601.0,546.0,72.0,83.0,131.0
561,601.0,601.0,547.0,71.0,94.0,131.0
562,601.0,602.0,546.0,71.0,93.0,130.0
563,602.0,601.0,546.0,70.0,91.0,129.0
564,601.0,602.0,546.0,70.0,91.0,128.0
565,602.0,602.0,546.0,69.0,90.0,126.0
566,602.0,602.0,546.0,68.0,89.0,124.0
567,602.0,602.0,547.0,68.0,88.0,123.0
568,602.0,602.0,546.0,67.0,87.0,122.0
569,602.0,602.0,547.0,67.0,86.0,121.0
570,602.0,602.0,546.0,66.0,86.0,120.0
571,602.0,602.0,547.0,65.0,84.0,119.0
572,602.0,602.0,546.0,65.0,83.0,117.0
573,602.0,601.0,546.0,64.0,82.0,116.0
574,601.0,602.0,546.0,64.0,82.0,115.0
575,602.0,602.0,546.0,63.0,81.0,114.0
576,602.0,602.0,546.0,62.0,80.0,113.0
577,602.0,603.0,546.0,62.0,80.0,112.0
578,603.0,603.0,546.0,61.0,78.0,112.0
579,603.0,603.0,546.0,60.0,78.0,111.0
580,603.0,602.0,546.0,60.0,77.0,109.0
581,602.0,602.0,546.0,59.0,76.0,108.0
582,602.0,601.0,547.0,59.0,75.0,107.0
583,601.0,601.0,547.0,58.0,75.0,107.0
584,601.0,601.0,547.0,58.0,74.0,106.0
585,601.0,601.0,547.0,58.0,71.0,104.0
586,601.0,600.0,547.0,57.0,73.0,103.0
587,600.0,601.0,547.0,56.0,72.0,102.0
588,601.0,600.0,547.0,56.0,71.0,101.0
589,600.0,600.0,547.0,56.0,71.0,105.0
590,600.0,600.0,547.0,56.0,70.0,104.0
591,600.0,600.0,547.0,55.0,70.0,102.0
592,600.0,600.0,547.0,54.0,69.0,102.0
593,600.0,600.0,547.0,54.0,68.0,100.0
594,600.0,600.0,547.0,53.0,68.0,99.0
595,600.0,601.0,546.0,53.0,67.0,98.0
596,601.0,601.0,545.0,52.0,67.0,98.0
597,601.0,601.0,545.0,51.0,66.0,97.0
598,601.0,601.0,546.0,51.0,65.0,96.0
599,601.0,601.0,546.0,51.0,65.0,95.0
600,601.0,601.0,546.0,51.0,64.0,94.0
601,601.0,601.0,545.0,50.0,64.0,93.0
602,601.0,603.0,546.0,50.0,62.0,92.0
603,603.0,604.0,546.0,50.0,62.0,91.0
604,604.0,603.0,546.0,49.0,62.0,91.0
605,603.0,603.0,546.0,48.0,62.0,90.0
606,603.0,603.0,545.0,48.0,61.0,89.0
607,603.0,603.0,545.0,47.0,61.0,88.0
608,603.0,603.0,545.0,47.0,59.0,87.0
609,603.0,602.0,545.0,47.0,60.0,87.0
610,602.0,602.0,545.0,58.0,59.0,86.0
611,602.0,602.0,545.0,56.0,59.0,85.0
612,602.0,603.0,545.0,55.0,57.0,84.0
613,603.0,603.0,545.0,55.0,57.0,83.0
614,603.0,603.0,545.0,55.0,57.0,83.0
615,603.0,603.0,545.0,55.0,56.0,82.0
616,603.0,603.0,545.0,54.0,55.0,82.0
617,603.0,603.0,545.0,53.0,55.0,82.0
618,603.0,603.0,545.0,52.0,56.0,79.0
619,603.0,602.0,545.0,52.0,54.0,80.0
620,602.0,602.0,545.0,52.0,54.0,79.0
621,602.0,602.0,545.0,51.0,55.0,78.0
622,602.0,603.0,545.0,51.0,53.0,77.0
623,603.0,603.0,545.0,50.0,52.0,76.0
624,603.0,602.0,544.0,50.0,52.0,76.0
625,602.0,602.0,545.0,49.0,51.0,75.0
626,602.0,602.0,544.0,48.0,53.0,110.0
627,602.0,602.0,545.0,48.0,52.0,108.0
628,602.0,601.0,545.0,48.0,52.0,106.0
629,601.0,601.0,545.0,47.0,51.0,106.0
630,601.0,601.0,544.0,47.0,51.0,104.0
631,601.0,601.0,544.0,46.0,51.0,103.0
632,601.0,600.0,545.0,46.0,49.0,101.0
633,600.0,600.0,545.0,46.0,50.0,100.0
634,600.0,600.0,545.0,44.0,49.0,100.0
635,600.0,600.0,546.0,45.0,49.0,98.0
636,600.0,600.0,546.0,44.0,48.0,98.0
637,600.0,600.0,546.0,44.0,48.0,96.0
638,600.0,599.0,546.0,44.0,47.0,95.0
639,599.0,600.0,546.0,44.0,47.0,94.0
640,600.0,600.0,547.0,43.0,47.0,93.0
641,600.0,600.0,546.0,44.0,47.0,93.0
642,600.0,600.0,547.0,42.0,45.0,91.0
643,600.0,601.0,547.0,42.0,46.0,91.0
644,601.0,601.0,547.0,41.0,45.0,90.0
645,601.0,601.0,547.0,42.0,44.0,88.0
646,601.0,601.0,548.0,42.0,44.0,88.0
647,601.0,601.0,547.0,43.0,45.0,88.0
648,601.0,599.0,546.0,41.0,43.0,86.0
649,599.0,601.0,547.0,41.0,43.0,86.0
650,601.0,604.0,547.0,40.0,42.0,85.0
651,604.0,602.0,546.0,40.0,43.0,84.0
652,602.0,601.0,545.0,39.0,42.0,83.0
653,601.0,602.0,545.0,39.0,42.0,99.0
654,602.0,602.0,546.0,39.0,89.0,125.0
655,602.0,602.0,546.0,39.0,88.0,123.0
656,602.0,602.0,545.0,39.0,87.0,122.0
657,602.0,601.0,545.0,38.0,85.0,121.0
658,601.0,601.0,546.0,38.0,85.0,119.0
659,601.0,602.0,546.0,90.0,84.0,118.0
660,602.0,601.0,544.0,96.0,84.0,117.0
661,601.0,601.0,544.0,96.0,83.0,115.0
662,601.0,602.0,545.0,95.0,81.0,114.0
663,602.0,602.0,545.0,94.0,80.0,112.0
664,602.0,601.0,544.0,92.0,80.0,111.0
665,601.0,601.0,544.0,92.0,79.0,110.0
666,601.0,602.0,545.0,91.0,78.0,109.0
667,602.0,602.0,546.0,89.0,77.0,108.0
668,602.0,602.0,545.0,88.0,77.0,107.0
669,602.0,602.0,545.0,87.0,76.0,106.0
670,602.0,602.0,544.0,87.0,74.0,105.0
671,602.0,602.0,545.0,86.0,75.0,104.0
672,602.0,602.0,546.0,85.0,73.0,102.0
673,602.0,602.0,547.0,84.0,73.0,102.0
674,602.0,602.0,547.0,84.0,72.0,101.0
675,602.0,604.0,547.0,83.0,71.0,99.0
676,604.0,604.0,546.0,82.0,72.0,98.0
677,604.0,604.0,546.0,81.0,70.0,98.0
678,604.0,603.0,546.0,80.0,69.0,96.0
679,603.0,603.0,546.0,80.0,69.0,96.0
680,603.0,603.0,547.0,79.0,69.0,94.0
681,603.0,602.0,547.0,78.0,67.0,94.0
682,602.0,603.0,548.0,77.0,67.0,93.0
683,603.0,603.0,548.0,76.0,66.0,92.0
684,603.0,603.0,548.0,76.0,96.0,155.0
685,603.0,603.0,547.0,75.0,95.0,153.0
686,603.0,603.0,547.0,74.0,93.0,150.0
687,603.0,602.0,546.0,74.0,92.0,148.0
688,602.0,602.0,547.0,74.0,91.0,146.0
689,602.0,602.0,546.0,77.0,90.0,145.0
690,602.0,601.0,547.0,77.0,89.0,143.0
691,601.0,601.0,547.0,76.0,88.0,142.0
692,601.0,602.0,547.0,75.0,91.0,140.0
693,602.0,601.0,547.0,75.0,90.0,139.0
694,601.0,601.0,547.0,73.0,90.0,137.0
695,601.0,601.0,547.0,73.0,88.0,135.0
696,601.0,601.0,546.0,73.0,87.0,134.0
697,601.0,601.0,547.0,71.0,87.0,133.0
698,601.0,600.0,547.0,70.0,86.0,131.0
699,600.0,600.0,546.0,70.0,84.0,129.0
700,600.0,601.0,546.0,69.0,84.0,129.0
701,601.0,601.0,546.0,69.0,83.0,126.0
702,601.0,601.0,545.0,68.0,82.0,126.0
703,601.0,601.0,545.0,68.0,81.0,125.0
704,601.0,601.0,545.0,67.0,80.0,123.0
705,601.0,602.0,545.0,66.0,80.0,122.0
706,602.0,601.0,545.0,65.0,79.0,120.0
707,601.0,602.0,546.0,65.0,77.0,119.0
708,602.0,602.0,546.0,64.0,77.0,118.0
709,602.0,602.0,546.0,64.0,76.0,117.0
710,602.0,602.0,545.0,63.0,76.0,116.0
711,602.0,603.0,544.0,63.0,75.0,115.0
712,603.0,603.0,544.0,62.0,74.0,113.0
713,603.0,602.0,543.0,61.0,74.0,112.0
714,602.0,601.0,543.0,61.0,73.0,111.0
715,601.0,601.0,544.0,60.0,72.0,111.0
716,601.0,601.0,545.0,60.0,72.0,109.0
717,601.0,601.0,544.0,59.0,70.0,108.0
718,601.0,601.0,544.0,59.0,70.0,107.0
719,601.0,601.0,543.0,59.0,70.0,106.0
720,601.0,601.0,543.0,58.0,69.0,105.0
721,601.0,602.0,542.0,56.0,69.0,104.0
722,602.0,602.0,543.0,57.0,68.0,103.0
723,602.0,601.0,543.0,56.0,68.0,139.0
724,601.0,602.0,544.0,55.0,73.0,156.0
725,602.0,603.0,544.0,55.0,72.0,154.0
726,603.0,603.0,544.0,55.0,71.0,152.0
727,603.0,604.0,544.0,54.0,71.0,151.0
728,604.0,604.0,545.0,53.0,72.0,148.0
729,604.0,605.0,545.0,53.0,69.0,147.0
730,605.0,604.0,545.0,52.0,69.0,143.0
731,604.0,604.0,545.0,52.0,68.0,144.0
732,604.0,604.0,545.0,51.0,67.0,142.0
733,604.0,604.0,546.0,51.0,67.0,141.0
734,604.0,603.0,545.0,57.0,66.0,139.0
735,603.0,603.0,545.0,58.0,65.0,137.0
736,603.0,603.0,545.0,58.0,65.0,136.0
737,603.0,602.0,546.0,57.0,64.0,134.0
738,602.0,601.0,547.0,57.0,64.0,133.0
739,601.0,601.0,547.0,56.0,62.0,132.0
740,601.0,601.0,547.0,55.0,62.0,130.0
741,601.0,601.0,546.0,55.0,61.0,129.0
742,601.0,602.0,545.0,54.0,62.0,128.0
743,602.0,601.0,544.0,54.0,60.0,125.0
744,601.0,602.0,545.0,53.0,60.0,125.0
745,602.0,601.0,545.0,53.0,60.0,124.0
746,601.0,601.0,543.0,52.0,62.0,122.0
747,601.0,602.0,545.0,52.0,62.0,121.0
748,602.0,603.0,547.0,52.0,62.0,120.0
749,603.0,603.0,545.0,50.0,61.0,119.0
750,603.0,604.0,545.0,50.0,60.0,117.0
751,604.0,603.0,545.0,50.0,59.0,116.0
752,603.0,603.0,545.0,50.0,59.0,115.0
753,603.0,603.0,545.0,49.0,59.0,114.0
754,603.0,602.0,545.0,48.0,58.0,113.0
755,602.0,603.0,547.0,48.0,57.0,112.0
756,603.0,603.0,547.0,48.0,58.0,110.0
757,603.0,602.0,545.0,50.0,56.0,109.0
758,602.0,603.0,545.0,49.0,56.0,108.0
759,603.0,604.0,544.0,49.0,55.0,107.0
760,604.0,604.0,544.0,48.0,55.0,106.0
761,604.0,604.0,544.0,48.0,55.0,105.0
762,604.0,603.0,544.0,47.0,53.0,104.0
763,603.0,603.0,545.0,46.0,53.0,103.0
764,603.0,603.0,544.0,47.0,53.0,102.0
765,603.0,602.0,544.0,47.0,52.0,100.0
766,602.0,604.0,545.0,46.0,52.0,100.0
767,604.0,604.0,543.0,45.0,51.0,99.0
768,604.0,604.0,543.0,45.0,53.0,98.0
769,604.0,604.0,543.0,44.0,50.0,97.0
770,604.0,603.0,545.0,45.0,49.0,96.0
771,603.0,602.0,544.0,44.0,49.0,95.0
772,602.0,603.0,544.0,43.0,49.0,94.0
773,603.0,604.0,544.0,43.0,49.0,93.0
774,604.0,604.0,543.0,42.0,49.0,93.0
775,604.0,604.0,543.0,42.0,48.0,92.0
776,604.0,604.0,543.0,42.0,52.0,91.0
777,604.0,603.0,543.0,42.0,50.0,90.0
778,603.0,602.0,542.0,41.0,50.0,89.0
779,602.0,603.0,544.0,41.0,50.0,88.0
780,603.0,603.0,543.0,40.0,49.0,88.0
781,603.0,602.0,541.0,41.0,49.0,87.0
782,602.0,602.0,542.0,39.0,49.0,86.0
783,602.0,602.0,542.0,39.0,48.0,85.0
784,602.0,602.0,543.0,39.0,47.0,85.0
785,602.0,603.0,543.0,39.0,48.0,84.0
786,603.0,602.0,543.0,38.0,51.0,83.0
787,602.0,603.0,542.0,39.0,50.0,82.0
788,603.0,603.0,543.0,38.0,49.0,81.0
789,603.0,602.0,543.0,37.0,50.0,80.0
790,602.0,602.0,543.0,37.0,49.0,80.0
791,602.0,603.0,543.0,37.0,49.0,79.0
792,603.0,603.0,543.0,36.0,48.0,78.0
793,603.0,603.0,544.0,37.0,47.0,77.0
794,603.0,603.0,543.0,37.0,48.0,77.0
795,603.0,603.0,543.0,35.0,46.0,76.0
796,603.0,603.0,543.0,35.0,46.0,76.0
797,603.0,604.0,543.0,35.0,47.0,74.0
798,604.0,603.0,543.0,35.0,45.0,74.0
799,603.0,603.0,544.0,34.0,45.0,74.0
800,603.0,603.0,544.0,34.0,44.0,72.0
801,603.0,602.0,544.0,34.0,44.0,72.0
802,602.0,603.0,545.0,34.0,43.0,72.0
803,603.0,603.0,545.0,34.0,44.0,71.0
804,603.0,603.0,545.0,33.0,43.0,70.0
805,603.0,603.0,545.0,33.0,43.0,69.0
806,603.0,602.0,545.0,44.0,42.0,69.0
807,602.0,602.0,545.0,42.0,42.0,68.0
808,602.0,602.0,545.0,41.0,41.0,68.0
809,602.0,602.0,545.0,41.0,42.0,67.0
810,602.0,602.0,544.0,40.0,41.0,67.0
811,602.0,602.0,544.0,40.0,40.0,66.0
812,602.0,602.0,544.0,39.0,41.0,65.0
813,602.0,602.0,544.0,39.0,40.0,64.0
814,602.0,602.0,545.0,39.0,39.0,64.0
815,602.0,602.0,545.0,38.0,39.0,64.0
816,602.0,603.0,544.0,38.0,39.0,63.0
817,603.0,603.0,544.0,38.0,42.0,62.0
818,603.0,604.0,544.0,37.0,40.0,62.0
819,604.0,603.0,544.0,37.0,40.0,62.0
820,603.0,604.0,544.0,37.0,40.0,61.0
821,604.0,603.0,543.0,37.0,40.0,61.0
822,603.0,603.0,544.0,37.0,39.0,59.0
823,603.0,604.0,544.0,36.0,39.0,60.0
824,604.0,603.0,544.0,35.0,39.0,59.0
825,603.0,603.0,544.0,35.0,38.0,59.0
826,603.0,604.0,544.0,35.0,38.0,58.0
827,604.0,604.0,544.0,34.0,37.0,57.0
828,604.0,603.0,544.0,34.0,37.0,57.0
829,603.0,604.0,544.0,34.0,37.0,87.0
830,604.0,604.0,543.0,33.0,37.0,86.0
831,604.0,604.0,543.0,32.0,36.0,84.0
832,604.0,603.0,543.0,32.0,36.0,85.0
833,603.0,603.0,543.0,111.0,37.0,82.0
834,603.0,603.0,543.0,109.0,37.0,82.0
835,603.0,603.0,544.0,108.0,36.0,81.0
836,603.0,602.0,543.0,106.0,37.0,81.0
837,602.0,602.0,543.0,105.0,36.0,79.0
838,602.0,602.0,544.0,104.0,35.0,78.0
839,602.0,602.0,544.0,103.0,35.0,77.0
840,602.0,603.0,544.0,102.0,35.0,77.0
841,603.0,603.0,544.0,101.0,34.0,76.0
842,603.0,603.0,544.0,99.0,34.0,75.0
843,603.0,603.0,543.0,99.0,41.0,74.0
844,603.0,603.0,543.0,98.0,41.0,73.0
845,603.0,602.0,543.0,97.0,41.0,73.0
846,602.0,602.0,543.0,95.0,40.0,72.0
847,602.0,602.0,543.0,95.0,40.0,72.0
848,602.0,602.0,543.0,94.0,40.0,71.0
849,602.0,603.0,544.0,93.0,39.0,69.0
850,603.0,603.0,544.0,92.0,38.0,69.0
851,603.0,603.0,544.0,91.0,38.0,69.0
852,603.0,603.0,543.0,91.0,38.0,68.0
853,603.0,602.0,543.0,89.0,36.0,67.0
854,602.0,603.0,543.0,88.0,37.0,66.0
855,603.0,602.0,543.0,87.0,37.0,66.0
856,602.0,602.0,543.0,87.0,37.0,66.0
857,602.0,603.0,544.0,87.0,91.0,87.0
858,603.0,602.0,544.0,85.0,89.0,86.0
859,602.0,602.0,543.0,85.0,88.0,85.0
860,602.0,602.0,543.0,84.0,87.0,84.0
861,602.0,603.0,543.0,84.0,87.0,83.0
862,603.0,602.0,544.0,82.0,85.0,83.0
863,602.0,603.0,543.0,82.0,90.0,82.0
864,603.0,602.0,543.0,80.0,87.0,81.0
865,602.0,602.0,543.0,80.0,87.0,81.0
866,602.0,602.0,544.0,80.0,87.0,79.0
867,602.0,603.0,544.0,79.0,85.0,79.0
868,603.0,603.0,544.0,78.0,84.0,78.0
869,603.0,603.0,544.0,77.0,83.0,78.0
870,603.0,603.0,544.0,77.0,83.0,76.0
871,603.0,602.0,544.0,76.0,82.0,75.0
872,602.0,602.0,544.0,75.0,80.0,76.0
873,602.0,603.0,544.0,75.0,80.0,74.0
874,603.0,602.0,544.0,73.0,80.0,73.0
875,602.0,602.0,544.0,72.0,78.0,72.0
876,602.0,602.0,544.0,74.0,78.0,71.0
877,602.0,602.0,543.0,71.0,77.0,71.0
878,602.0,600.0,543.0,71.0,76.0,71.0
879,600.0,601.0,544.0,71.0,76.0,70.0
880,601.0,602.0,545.0,86.0,75.0,69.0
881,602.0,602.0,544.0,92.0,74.0,69.0
882,602.0,603.0,543.0,91.0,73.0,68.0
883,603.0,603.0,542.0,90.0,73.0,67.0
884,603.0,603.0,542.0,88.0,71.0,67.0
885,603.0,603.0,543.0,89.0,71.0,66.0
886,603.0,603.0,543.0,87.0,88.0,65.0
887,603.0,603.0,543.0,86.0,87.0,64.0
888,603.0,603.0,544.0,85.0,86.0,64.0
889,603.0,602.0,544.0,85.0,85.0,63.0
890,602.0,603.0,543.0,84.0,85.0,85.0
891,603.0,603.0,543.0,83.0,84.0,83.0
892,603.0,603.0,543.0,82.0,84.0,83.0
893,603.0,603.0,544.0,81.0,82.0,82.0
894,603.0,603.0,543.0,80.0,81.0,81.0
895,603.0,602.0,543.0,79.0,80.0,80.0
896,602.0,602.0,543.0,79.0,79.0,79.0
897,602.0,602.0,543.0,78.0,78.0,78.0
898,602.0,601.0,543.0,77.0,77.0,78.0
899,601.0,602.0,543.0,77.0,76.0,76.0
900,602.0,602.0,544.0,76.0,76.0,76.0
901,602.0,602.0,543.0,75.0,75.0,75.0
902,602.0,603.0,544.0,75.0,74.0,75.0
903,603.0,604.0,544.0,74.0,74.0,74.0
904,604.0,603.0,544.0,105.0,73.0,72.0
905,603.0,603.0,544.0,103.0,72.0,72.0
906,603.0,603.0,543.0,102.0,72.0,71.0
907,603.0,603.0,543.0,101.0,71.0,70.0
908,603.0,604.0,543.0,100.0,69.0,70.0
909,604.0,604.0,543.0,98.0,70.0,69.0
910,604.0,604.0,543.0,98.0,69.0,69.0
911,604.0,605.0,543.0,97.0,68.0,68.0
912,605.0,605.0,543.0,96.0,68.0,68.0
913,605.0,606.0,544.0,96.0,70.0,109.0
914,606.0,605.0,543.0,94.0,69.0,107.0
915,605.0,605.0,543.0,94.0,68.0,107.0
916,605.0,605.0,544.0,93.0,67.0,105.0
917,605.0,604.0,543.0,92.0,67.0,104.0
918,604.0,604.0,544.0,91.0,66.0,102.0
919,604.0,604.0,544.0,90.0,66.0,101.0
920,604.0,604.0,543.0,89.0,66.0,100.0
921,604.0,604.0,544.0,88.0,64.0,99.0
922,604.0,603.0,544.0,87.0,64.0,98.0
923,603.0,603.0,544.0,86.0,63.0,97.0
924,603.0,603.0,545.0,86.0,62.0,96.0
925,603.0,604.0,545.0,85.0,62.0,95.0
926,604.0,603.0,545.0,84.0,61.0,94.0
927,603.0,603.0,545.0,84.0,61.0,92.0
928,603.0,602.0,545.0,82.0,60.0,93.0
929,602.0,602.0,545.0,82.0,59.0,91.0
930,602.0,603.0,544.0,80.0,58.0,90.0
931,603.0,602.0,544.0,80.0,59.0,89.0
932,602.0,602.0,543.0,79.0,58.0,89.0
933,602.0,603.0,544.0,78.0,61.0,89.0
934,603.0,603.0,543.0,77.0,59.0,88.0
935,603.0,602.0,543.0,77.0,60.0,87.0
936,602.0,603.0,543.0,77.0,59.0,148.0
937,603.0,602.0,543.0,76.0,59.0,147.0
938,602.0,602.0,543.0,75.0,58.0,145.0
939,602.0,602.0,543.0,75.0,58.0,143.0
940,602.0,602.0,543.0,73.0,57.0,141.0
941,602.0,602.0,542.0,73.0,57.0,139.0
942,602.0,602.0,543.0,72.0,56.0,138.0
943,602.0,602.0,543.0,71.0,56.0,135.0
944,602.0,602.0,543.0,71.0,55.0,135.0
945,602.0,602.0,543.0,69.0,54.0,134.0
946,602.0,601.0,543.0,70.0,54.0,132.0
947,601.0,602.0,543.0,68.0,53.0,131.0
948,602.0,602.0,543.0,68.0,53.0,129.0
949,602.0,601.0,543.0,67.0,52.0,128.0
950,601.0,602.0,542.0,67.0,52.0,127.0
951,602.0,602.0,542.0,67.0,52.0,125.0
952,602.0,602.0,543.0,65.0,52.0,123.0
953,602.0,602.0,542.0,65.0,51.0,122.0
954,602.0,603.0,542.0,64.0,50.0,122.0
955,603.0,602.0,543.0,64.0,49.0,119.0
956,602.0,603.0,543.0,63.0,50.0,119.0
957,603.0,602.0,543.0,63.0,49.0,118.0
958,602.0,602.0,544.0,62.0,49.0,116.0
959,602.0,603.0,543.0,62.0,48.0,115.0
960,603.0,603.0,543.0,62.0,48.0,114.0
961,603.0,603.0,543.0,60.0,47.0,113.0
962,603.0,603.0,544.0,59.0,47.0,111.0
963,603.0,603.0,544.0,59.0,47.0,110.0
964,603.0,603.0,544.0,59.0,46.0,110.0
965,603.0,603.0,543.0,58.0,46.0,109.0
966,603.0,603.0,543.0,58.0,45.0,107.0
967,603.0,602.0,544.0,58.0,45.0,106.0
968,602.0,602.0,543.0,57.0,44.0,104.0
969,602.0,601.0,544.0,56.0,44.0,104.0
970,601.0,601.0,544.0,57.0,44.0,103.0
971,601.0,601.0,544.0,55.0,44.0,102.0
972,601.0,602.0,544.0,55.0,43.0,100.0
973,602.0,601.0,544.0,54.0,45.0,100.0
974,601.0,601.0,544.0,53.0,44.0,99.0
975,601.0,601.0,544.0,54.0,44.0,98.0
976,601.0,602.0,544.0,53.0,43.0,96.0
977,602.0,602.0,543.0,52.0,43.0,96.0
978,602.0,602.0,543.0,52.0,42.0,95.0
979,602.0,602.0,543.0,52.0,43.0,94.0
980,602.0,602.0,544.0,51.0,42.0,93.0
981,602.0,603.0,544.0,50.0,41.0,92.0
982,603.0,603.0,545.0,52.0,41.0,91.0
983,603.0,604.0,544.0,50.0,41.0,90.0
984,604.0,605.0,545.0,49.0,41.0,90.0
985,605.0,605.0,544.0,49.0,40.0,89.0
986,605.0,605.0,544.0,50.0,40.0,89.0
987,605.0,605.0,544.0,48.0,39.0,87.0
988,605.0,605.0,543.0,47.0,39.0,86.0
989,605.0,605.0,543.0,48.0,39.0,86.0
990,605.0,604.0,543.0,47.0,39.0,133.0
991,604.0,604.0,543.0,62.0,110.0,151.0
992,604.0,605.0,542.0,74.0,106.0,148.0
993,605.0,605.0,543.0,73.0,106.0,146.0
994,605.0,605.0,543.0,71.0,104.0,144.0
995,605.0,605.0,543.0,71.0,103.0,144.0
996,605.0,605.0,543.0,70.0,102.0,141.0
997,605.0,606.0,543.0,70.0,100.0,139.0
998,606.0,604.0,543.0,69.0,99.0,138.0
999,604.0,605.0,543.0,68.0,98.0,136.0
1000,605.0,604.0,543.0,68.0,96.0,135.0
1001,604.0,604.0,543.0,67.0,96.0,133.0
1002,604.0,604.0,543.0,66.0,95.0,132.0
1003,604.0,603.0,542.0,65.0,94.0,130.0
1004,603.0,603.0,542.0,65.0,93.0,129.0
1005,603.0,603.0,542.0,64.0,93.0,128.0
1006,603.0,602.0,542.0,64.0,91.0,127.0
1007,602.0,602.0,543.0,58.0,90.0,124.0
1008,602.0,601.0,543.0,62.0,89.0,123.0
1009,601.0,601.0,543.0,62.0,88.0,123.0
1010,601.0,602.0,543.0,61.0,88.0,122.0
1011,602.0,602.0,543.0,61.0,86.0,119.0
1012,602.0,601.0,543.0,61.0,86.0,119.0
1013,601.0,601.0,543.0,59.0,85.0,118.0
1014,601.0,601.0,543.0,59.0,84.0,116.0
1015,601.0,600.0,542.0,58.0,83.0,115.0
1016,600.0,600.0,542.0,58.0,82.0,113.0
1017,600.0,600.0,542.0,58.0,82.0,113.0
1018,600.0,600.0,542.0,57.0,81.0,112.0
1019,600.0,601.0,543.0,56.0,80.0,111.0
1020,601.0,601.0,544.0,55.0,80.0,110.0
1021,601.0,603.0,544.0,55.0,79.0,108.0
1022,603.0,603.0,545.0,54.0,78.0,113.0
1023,603.0,603.0,543.0,54.0,77.0,111.0
1024,603.0,602.0,543.0,53.0,76.0,110.0
1025,602.0,603.0,543.0,53.0,75.0,108.0
1026,603.0,603.0,543.0,53.0,74.0,108.0
1027,603.0,603.0,543.0,52.0,74.0,106.0
1028,603.0,604.0,544.0,51.0,74.0,105.0
1029,604.0,605.0,544.0,51.0,72.0,104.0
1030,605.0,605.0,544.0,51.0,72.0,103.0
1031,605.0,602.0,543.0,51.0,71.0,102.0
1032,602.0,602.0,542.0,49.0,70.0,101.0
1033,602.0,603.0,544.0,49.0,70.0,100.0
1034,603.0,604.0,544.0,48.0,69.0,99.0
1035,604.0,604.0,544.0,48.0,68.0,97.0
1036,604.0,604.0,544.0,48.0,68.0,98.0
1037,604.0,604.0,544.0,47.0,67.0,97.0
1038,604.0,604.0,543.0,46.0,66.0,95.0
1039,604.0,603.0,543.0,46.0,66.0,94.0
1040,603.0,603.0,543.0,46.0,66.0,94.0
1041,603.0,603.0,542.0,45.0,65.0,93.0
1042,603.0,604.0,543.0,75.0,123.0,92.0
1043,604.0,603.0,543.0,73.0,121.0,91.0
1044,603.0,603.0,543.0,74.0,120.0,90.0
1045,603.0,602.0,543.0,71.0,118.0,89.0
1046,602.0,603.0,543.0,71.0,117.0,88.0
1047,603.0,603.0,544.0,70.0,115.0,87.0
1048,603.0,603.0,544.0,69.0,114.0,87.0
1049,603.0,603.0,544.0,68.0,113.0,85.0
1050,603.0,602.0,544.0,67.0,111.0,85.0
1051,602.0,603.0,543.0,67.0,111.0,84.0
1052,603.0,603.0,544.0,66.0,109.0,84.0
1053,603.0,604.0,544.0,66.0,108.0,82.0
1054,604.0,603.0,544.0,65.0,107.0,83.0
1055,603.0,602.0,544.0,64.0,106.0,81.0
1056,602.0,602.0,543.0,64.0,106.0,80.0
1057,602.0,602.0,544.0,63.0,104.0,79.0
1058,602.0,602.0,545.0,64.0,103.0,79.0
1059,602.0,603.0,545.0,64.0,101.0,78.0
1060,603.0,604.0,545.0,62.0,101.0,77.0
1061,604.0,604.0,545.0,62.0,100.0,77.0
1062,604.0,603.0,545.0,61.0,99.0,76.0
1063,603.0,604.0,544.0,61.0,99.0,75.0
1064,604.0,605.0,544.0,61.0,98.0,74.0
1065,605.0,603.0,543.0,60.0,96.0,73.0
1066,603.0,604.0,544.0,59.0,96.0,73.0
1067,604.0,604.0,545.0,59.0,111.0,89.0
1068,604.0,604.0,544.0,58.0,109.0,88.0
1069,604.0,603.0,543.0,57.0,109.0,87.0
1070,603.0,603.0,544.0,57.0,107.0,86.0
1071,603.0,603.0,545.0,57.0,106.0,85.0
1072,603.0,603.0,545.0,55.0,105.0,84.0
1073,603.0,603.0,544.0,55.0,104.0,83.0
1074,603.0,602.0,544.0,55.0,103.0,82.0
1075,602.0,603.0,544.0,55.0,102.0,82.0
1076,603.0,603.0,544.0,54.0,101.0,81.0
1077,603.0,603.0,543.0,53.0,100.0,80.0
1078,603.0,604.0,543.0,53.0,99.0,80.0
1079,604.0,604.0,544.0,53.0,124.0,83.0
1080,604.0,604.0,544.0,51.0,122.0,83.0
1081,604.0,604.0,543.0,51.0,120.0,81.0
1082,604.0,604.0,544.0,50.0,119.0,85.0
1083,604.0,604.0,544.0,50.0,117.0,83.0
1084,604.0,603.0,544.0,49.0,116.0,83.0
1085,603.0,604.0,543.0,50.0,115.0,82.0
1086,604.0,604.0,543.0,49.0,114.0,81.0
1087,604.0,604.0,544.0,48.0,113.0,80.0
1088,604.0,604.0,543.0,48.0,111.0,80.0
1089,604.0,603.0,543.0,48.0,110.0,78.0
1090,603.0,603.0,543.0,48.0,109.0,78.0
1091,603.0,604.0,543.0,48.0,108.0,76.0
1092,604.0,603.0,543.0,47.0,107.0,76.0
1093,603.0,603.0,543.0,46.0,106.0,75.0
1094,603.0,603.0,542.0,45.0,105.0,75.0
1095,603.0,603.0,542.0,45.0,103.0,74.0
1096,603.0,602.0,543.0,45.0,103.0,72.0
1097,602.0,603.0,543.0,45.0,102.0,73.0
1098,603.0,602.0,544.0,44.0,100.0,71.0
1099,602.0,602.0,543.0,44.0,100.0,71.0
1100,602.0,601.0,544.0,43.0,99.0,70.0
1101,601.0,601.0,543.0,43.0,98.0,69.0
1102,601.0,601.0,544.0,42.0,97.0,98.0
1103,601.0,601.0,544.0,43.0,122.0,188.0
1104,601.0,600.0,544.0,41.0,120.0,185.0
1105,600.0,600.0,544.0,41.0,118.0,182.0
1106,600.0,600.0,544.0,41.0,117.0,180.0
1107,600.0,600.0,544.0,41.0,116.0,178.0
1108,600.0,601.0,544.0,40.0,115.0,176.0
1109,601.0,601.0,544.0,40.0,113.0,174.0
1110,601.0,601.0,544.0,39.0,112.0,172.0
1111,601.0,601.0,546.0,39.0,111.0,170.0
1112,601.0,602.0,544.0,39.0,110.0,168.0
1113,602.0,602.0,543.0,39.0,110.0,166.0
1114,602.0,604.0,545.0,38.0,107.0,165.0
1115,604.0,603.0,544.0,38.0,106.0,163.0
1116,603.0,601.0,543.0,38.0,106.0,160.0
1117,601.0,602.0,544.0,37.0,104.0,158.0
1118,602.0,601.0,543.0,37.0,103.0,157.0
1119,601.0,603.0,543.0,38.0,102.0,154.0
1120,603.0,602.0,545.0,37.0,101.0,154.0
1121,602.0,602.0,544.0,36.0,100.0,151.0
1122,602.0,603.0,542.0,36.0,99.0,150.0
1123,603.0,602.0,543.0,36.0,98.0,149.0
1124,602.0,603.0,544.0,35.0,97.0,147.0
1125,603.0,602.0,542.0,35.0,96.0,145.0
1126,602.0,603.0,544.0,35.0,95.0,144.0
1127,603.0,604.0,543.0,37.0,95.0,142.0
1128,604.0,603.0,542.0,36.0,94.0,141.0
1129,603.0,602.0,543.0,36.0,92.0,139.0
1130,602.0,602.0,543.0,35.0,92.0,138.0
1131,602.0,602.0,542.0,35.0,91.0,136.0
1132,602.0,602.0,543.0,35.0,90.0,135.0
1133,602.0,602.0,545.0,35.0,89.0,134.0
1134,602.0,602.0,543.0,34.0,88.0,132.0
1135,602.0,601.0,542.0,34.0,87.0,131.0
1136,601.0,602.0,543.0,34.0,86.0,130.0
1137,602.0,603.0,543.0,34.0,85.0,128.0
1138,603.0,602.0,543.0,33.0,85.0,126.0
1139,602.0,603.0,544.0,33.0,84.0,126.0
1140,603.0,604.0,544.0,32.0,83.0,124.0
1141,604.0,604.0,544.0,32.0,82.0,123.0
1142,604.0,605.0,544.0,32.0,82.0,122.0
1143,605.0,604.0,544.0,32.0,80.0,121.0
1144,604.0,606.0,544.0,31.0,80.0,119.0
1145,606.0,606.0,544.0,32.0,80.0,119.0
1146,606.0,606.0,544.0,31.0,79.0,117.0
1147,606.0,606.0,545.0,31.0,80.0,115.0
1148,606.0,606.0,544.0,30.0,78.0,114.0
1149,606.0,604.0,542.0,30.0,77.0,114.0
1150,604.0,605.0,543.0,30.0,77.0,113.0
1151,605.0,605.0,544.0,30.0,76.0,111.0
1152,605.0,604.0,544.0,30.0,75.0,110.0
1153,604.0,605.0,543.0,29.0,75.0,109.0
1154,605.0,605.0,544.0,29.0,74.0,109.0
1155,605.0,605.0,543.0,29.0,73.0,108.0
1156,605.0,605.0,543.0,29.0,73.0,106.0
1157,605.0,605.0,544.0,29.0,72.0,106.0
1158,605.0,604.0,543.0,28.0,71.0,104.0
1159,604.0,603.0,545.0,28.0,70.0,103.0
1160,603.0,604.0,545.0,27.0,70.0,102.0
1161,604.0,603.0,545.0,27.0,69.0,101.0
1162,603.0,603.0,547.0,28.0,69.0,100.0
1163,603.0,603.0,545.0,27.0,68.0,98.0
1164,603.0,601.0,544.0,27.0,68.0,98.0
1165,601.0,602.0,546.0,69.0,68.0,97.0
1166,602.0,601.0,545.0,89.0,67.0,97.0
1167,601.0,600.0,544.0,87.0,66.0,96.0
1168,600.0,602.0,546.0,85.0,65.0,94.0
1169,602.0,602.0,546.0,85.0,64.0,94.0
1170,602.0,602.0,543.0,84.0,64.0,93.0
1171,602.0,601.0,544.0,84.0,64.0,91.0
1172,601.0,602.0,545.0,83.0,63.0,91.0
1173,602.0,603.0,544.0,82.0,62.0,91.0
1174,603.0,602.0,545.0,82.0,62.0,90.0
1175,602.0,603.0,546.0,81.0,62.0,89.0
1176,603.0,603.0,545.0,80.0,61.0,88.0
1177,603.0,602.0,544.0,79.0,61.0,87.0
1178,602.0,602.0,545.0,78.0,60.0,86.0
1179,602.0,603.0,544.0,78.0,59.0,86.0
1180,603.0,603.0,543.0,76.0,58.0,85.0
1181,603.0,603.0,544.0,75.0,58.0,84.0
1182,603.0,604.0,545.0,75.0,58.0,83.0
1183,604.0,605.0,546.0,74.0,57.0,83.0
1184,605.0,604.0,544.0,74.0,56.0,82.0
1185,604.0,602.0,543.0,73.0,55.0,81.0
1186,602.0,602.0,544.0,72.0,55.0,80.0
1187,602.0,603.0,543.0,71.0,55.0,79.0
1188,603.0,603.0,543.0,70.0,54.0,79.0
1189,603.0,604.0,545.0,70.0,54.0,78.0
1190,604.0,603.0,544.0,69.0,54.0,77.0
1191,603.0,602.0,543.0,69.0,53.0,77.0
1192,602.0,602.0,544.0,68.0,53.0,76.0
1193,602.0,601.0,544.0,68.0,53.0,75.0
1194,601.0,602.0,544.0,67.0,52.0,74.0
1195,602.0,601.0,543.0,66.0,52.0,74.0
1196,601.0,601.0,543.0,66.0,51.0,73.0
1197,601.0,602.0,544.0,65.0,50.0,73.0
1198,602.0,602.0,544.0,64.0,50.0,72.0
1199,602.0,603.0,545.0,63.0,50.0,71.0
1200,603.0,603.0,546.0,64.0,50.0,70.0
1201,603.0,604.0,546.0,149.0,117.0,158.0
1202,604.0,603.0,544.0,145.0,112.0,155.0
1203,603.0,602.0,543.0,142.0,111.0,153.0
1204,602.0,602.0,540.0,141.0,110.0,152.0
1205,602.0,601.0,540.0,139.0,109.0,150.0
1206,601.0,601.0,542.0,137.0,107.0,148.0
1207,601.0,600.0,544.0,136.0,106.0,146.0
1208,600.0,600.0,544.0,134.0,104.0,144.0
1209,600.0,602.0,544.0,133.0,103.0,143.0
1210,602.0,602.0,544.0,131.0,103.0,141.0
1211,602.0,602.0,543.0,130.0,102.0,139.0
1212,602.0,603.0,542.0,128.0,100.0,137.0
1213,603.0,602.0,542.0,128.0,100.0,136.0
1214,602.0,602.0,543.0,126.0,98.0,134.0
1215,602.0,601.0,543.0,124.0,98.0,133.0
1216,601.0,602.0,543.0,123.0,96.0,132.0
1217,602.0,601.0,542.0,123.0,95.0,130.0
1218,601.0,602.0,543.0,120.0,94.0,128.0
1219,602.0,602.0,543.0,119.0,94.0,127.0
1220,602.0,602.0,543.0,118.0,92.0,125.0
1221,602.0,603.0,543.0,117.0,92.0,125.0
1222,603.0,602.0,543.0,116.0,90.0,123.0
1223,602.0,603.0,543.0,114.0,90.0,122.0
1224,603.0,602.0,543.0,113.0,89.0,122.0
1225,602.0,602.0,542.0,111.0,87.0,119.0
1226,602.0,602.0,543.0,111.0,87.0,118.0
1227,602.0,602.0,543.0,110.0,86.0,118.0
1228,602.0,602.0,544.0,109.0,85.0,115.0
1229,602.0,602.0,544.0,108.0,84.0,115.0
1230,602.0,603.0,544.0,106.0,84.0,113.0
1231,603.0,603.0,544.0,106.0,83.0,112.0
1232,603.0,603.0,544.0,104.0,82.0,111.0
1233,603.0,604.0,544.0,103.0,81.0,110.0
1234,604.0,604.0,544.0,103.0,81.0,109.0
1235,604.0,604.0,543.0,102.0,80.0,109.0
1236,604.0,604.0,543.0,101.0,79.0,107.0
1237,604.0,605.0,543.0,100.0,78.0,105.0
1238,605.0,604.0,543.0,99.0,77.0,104.0
1239,604.0,604.0,544.0,98.0,76.0,103.0
1240,604.0,604.0,545.0,96.0,75.0,102.0
1241,604.0,603.0,545.0,96.0,75.0,101.0
1242,603.0,603.0,544.0,95.0,74.0,100.0
1243,603.0,603.0,543.0,95.0,73.0,99.0
1244,603.0,603.0,544.0,93.0,73.0,98.0
1245,603.0,604.0,543.0,92.0,72.0,98.0
1246,604.0,603.0,544.0,91.0,72.0,96.0
1247,603.0,602.0,544.0,91.0,71.0,94.0
1248,602.0,602.0,545.0,90.0,70.0,95.0
1249,602.0,602.0,544.0,89.0,70.0,94.0
1250,602.0,601.0,543.0,87.0,69.0,92.0
1251,601.0,601.0,544.0,87.0,68.0,92.0
1252,601.0,601.0,545.0,86.0,68.0,91.0
1253,601.0,600.0,544.0,87.0,67.0,90.0
1254,600.0,601.0,544.0,85.0,66.0,89.0
1255,601.0,601.0,545.0,84.0,66.0,89.0
1256,601.0,601.0,545.0,84.0,66.0,88.0
1257,601.0,601.0,544.0,83.0,65.0,87.0
1258,601.0,602.0,545.0,82.0,64.0,86.0
1259,602.0,602.0,545.0,82.0,63.0,85.0
1260,602.0,603.0,545.0,144.0,64.0,84.0
1261,603.0,602.0,544.0,142.0,62.0,84.0
1262,602.0,602.0,544.0,140.0,62.0,82.0
1263,602.0,602.0,543.0,138.0,61.0,82.0
1264,602.0,602.0,543.0,136.0,61.0,81.0
1265,602.0,602.0,543.0,135.0,86.0,106.0
1266,602.0,602.0,542.0,134.0,91.0,104.0
1267,602.0,603.0,542.0,132.0,90.0,103.0
1268,603.0,603.0,542.0,130.0,89.0,102.0
1269,603.0,604.0,543.0,129.0,88.0,100.0
1270,604.0,603.0,543.0,128.0,87.0,100.0
1271,603.0,603.0,544.0,126.0,86.0,98.0
1272,603.0,603.0,543.0,126.0,85.0,97.0
1273,603.0,603.0,543.0,124.0,83.0,96.0
1274,603.0,603.0,544.0,123.0,83.0,95.0
1275,603.0,603.0,544.0,121.0,82.0,95.0
1276,603.0,602.0,544.0,119.0,82.0,93.0
1277,602.0,603.0,544.0,119.0,80.0,92.0
1278,603.0,603.0,544.0,117.0,80.0,92.0
1279,603.0,603.0,545.0,116.0,79.0,91.0
1280,603.0,602.0,545.0,116.0,78.0,90.0
1281,602.0,602.0,545.0,115.0,78.0,89.0
1282,602.0,602.0,545.0,113.0,77.0,88.0
1283,602.0,602.0,546.0,114.0,77.0,87.0
1284,602.0,602.0,545.0,111.0,75.0,86.0
1285,602.0,601.0,545.0,110.0,74.0,85.0
1286,601.0,601.0,545.0,109.0,74.0,84.0
1287,601.0,601.0,544.0,108.0,73.0,83.0
1288,601.0,601.0,544.0,107.0,72.0,81.0
1289,601.0,601.0,544.0,106.0,71.0,82.0
1290,601.0,602.0,545.0,105.0,153.0,151.0
1291,602.0,601.0,544.0,103.0,151.0,149.0
1292,601.0,601.0,544.0,102.0,148.0,147.0
1293,601.0,601.0,545.0,102.0,147.0,146.0
1294,601.0,602.0,546.0,101.0,145.0,144.0
1295,602.0,603.0,545.0,99.0,143.0,142.0
1296,603.0,603.0,544.0,99.0,141.0,140.0
1297,603.0,603.0,545.0,98.0,140.0,139.0
1298,603.0,604.0,544.0,97.0,139.0,138.0
1299,604.0,604.0,544.0,96.0,137.0,135.0
1300,604.0,604.0,544.0,95.0,135.0,134.0
1301,604.0,605.0,544.0,94.0,134.0,132.0
1302,605.0,604.0,543.0,94.0,132.0,131.0
1303,604.0,604.0,543.0,92.0,131.0,129.0
1304,604.0,604.0,542.0,91.0,130.0,128.0
1305,604.0,604.0,543.0,91.0,128.0,128.0
1306,604.0,604.0,543.0,90.0,128.0,126.0
1307,604.0,604.0,542.0,89.0,125.0,124.0
1308,604.0,604.0,543.0,88.0,123.0,123.0
1309,604.0,604.0,542.0,87.0,123.0,121.0
1310,604.0,603.0,543.0,86.0,121.0,119.0
1311,603.0,603.0,543.0,86.0,121.0,117.0
1312,603.0,603.0,544.0,85.0,120.0,117.0
1313,603.0,603.0,544.0,84.0,118.0,116.0
1314,603.0,603.0,543.0,83.0,117.0,115.0
1315,603.0,603.0,544.0,82.0,115.0,114.0
1316,603.0,603.0,543.0,82.0,114.0,113.0
1317,603.0,602.0,543.0,81.0,114.0,112.0
1318,602.0,602.0,543.0,80.0,112.0,111.0
1319,602.0,601.0,543.0,79.0,111.0,109.0
1320,601.0,601.0,543.0,79.0,110.0,108.0
1321,601.0,602.0,544.0,78.0,109.0,107.0
1322,602.0,601.0,544.0,77.0,108.0,106.0
1323,601.0,601.0,544.0,76.0,107.0,105.0
1324,601.0,603.0,544.0,76.0,106.0,134.0
1325,603.0,602.0,544.0,75.0,105.0,140.0
1326,602.0,602.0,544.0,74.0,104.0,138.0
1327,602.0,603.0,544.0,73.0,103.0,135.0
1328,603.0,602.0,543.0,73.0,102.0,134.0
1329,602.0,603.0,544.0,72.0,101.0,133.0
1330,603.0,603.0,545.0,72.0,99.0,131.0
1331,603.0,603.0,544.0,71.0,98.0,131.0
1332,603.0,603.0,545.0,70.0,98.0,128.0
1333,603.0,604.0,545.0,71.0,97.0,128.0
1334,604.0,604.0,545.0,69.0,96.0,125.0
1335,604.0,603.0,545.0,69.0,95.0,124.0
1336,603.0,602.0,544.0,68.0,93.0,123.0
1337,602.0,602.0,544.0,68.0,93.0,122.0
1338,602.0,601.0,545.0,67.0,92.0,120.0
1339,601.0,602.0,545.0,66.0,91.0,119.0
1340,602.0,602.0,544.0,65.0,90.0,118.0
1341,602.0,601.0,544.0,64.0,89.0,117.0
1342,601.0,601.0,543.0,65.0,90.0,115.0
1343,601.0,601.0,544.0,64.0,88.0,115.0
1344,601.0,602.0,543.0,64.0,89.0,115.0
1345,602.0,602.0,544.0,62.0,89.0,114.0
1346,602.0,602.0,543.0,62.0,87.0,113.0
1347,602.0,602.0,543.0,62.0,86.0,111.0
1348,602.0,602.0,544.0,61.0,86.0,110.0
1349,602.0,601.0,544.0,61.0,85.0,110.0
1350,601.0,601.0,544.0,60.0,84.0,108.0
1351,601.0,601.0,543.0,60.0,83.0,107.0
1352,601.0,601.0,542.0,59.0,83.0,107.0
1353,601.0,601.0,542.0,77.0,132.0,107.0
1354,601.0,601.0,543.0,76.0,131.0,106.0
1355,601.0,601.0,543.0,74.0,129.0,103.0
1356,601.0,601.0,545.0,75.0,128.0,103.0
1357,601.0,601.0,544.0,73.0,126.0,102.0
1358,601.0,601.0,544.0,73.0,125.0,101.0
1359,601.0,602.0,544.0,72.0,123.0,99.0
1360,602.0,602.0,544.0,71.0,122.0,99.0
1361,602.0,602.0,543.0,70.0,120.0,98.0
1362,602.0,603.0,543.0,69.0,119.0,97.0
1363,603.0,603.0,543.0,68.0,118.0,96.0
1364,603.0,603.0,543.0,67.0,117.0,94.0
1365,603.0,603.0,543.0,73.0,116.0,94.0
1366,603.0,603.0,543.0,71.0,115.0,94.0
1367,603.0,604.0,542.0,71.0,113.0,92.0
1368,604.0,604.0,544.0,70.0,112.0,92.0
1369,604.0,603.0,543.0,70.0,111.0,90.0
1370,603.0,603.0,544.0,68.0,110.0,90.0
1371,603.0,604.0,545.0,68.0,109.0,89.0
1372,604.0,604.0,544.0,68.0,107.0,88.0
1373,604.0,604.0,544.0,66.0,107.0,87.0
1374,604.0,603.0,543.0,66.0,105.0,86.0
1375,603.0,603.0,543.0,65.0,105.0,86.0
1376,603.0,603.0,543.0,64.0,103.0,84.0
1377,603.0,602.0,544.0,64.0,102.0,84.0
1378,602.0,602.0,543.0,64.0,101.0,83.0
1379,602.0,602.0,544.0,62.0,100.0,82.0
1380,602.0,603.0,544.0,62.0,98.0,82.0
1381,603.0,602.0,544.0,62.0,99.0,81.0
1382,602.0,602.0,544.0,60.0,98.0,80.0
1383,602.0,604.0,544.0,60.0,97.0,79.0
1384,604.0,604.0,544.0,60.0,96.0,79.0
1385,604.0,602.0,542.0,59.0,95.0,77.0
1386,602.0,602.0,543.0,59.0,94.0,78.0
1387,602.0,605.0,545.0,57.0,104.0,77.0
1388,605.0,604.0,544.0,57.0,102.0,75.0
1389,604.0,603.0,544.0,58.0,102.0,75.0
1390,603.0,603.0,544.0,57.0,100.0,74.0
1391,603.0,602.0,546.0,57.0,99.0,74.0
1392,602.0,602.0,544.0,57.0,98.0,72.0
1393,602.0,601.0,544.0,55.0,97.0,71.0
1394,601.0,600.0,544.0,55.0,96.0,72.0
1395,600.0,601.0,544.0,54.0,95.0,71.0
1396,601.0,603.0,544.0,54.0,94.0,70.0
1397,603.0,602.0,544.0,53.0,93.0,69.0
1398,602.0,602.0,544.0,53.0,93.0,70.0
1399,602.0,602.0,545.0,52.0,91.0,68.0
1400,602.0,601.0,544.0,52.0,90.0,68.0
1401,601.0,601.0,544.0,51.0,90.0,67.0
1402,601.0,602.0,544.0,51.0,89.0,66.0
1403,602.0,601.0,543.0,51.0,88.0,65.0
1404,601.0,601.0,543.0,50.0,88.0,66.0
1405,601.0,602.0,544.0,50.0,87.0,65.0
1406,602.0,602.0,544.0,49.0,86.0,64.0
1407,602.0,601.0,543.0,49.0,85.0,64.0
1408,601.0,602.0,543.0,49.0,84.0,63.0
1409,602.0,602.0,544.0,50.0,84.0,62.0
1410,602.0,601.0,543.0,49.0,82.0,62.0
1411,601.0,601.0,543.0,49.0,83.0,61.0
1412,601.0,602.0,543.0,48.0,81.0,61.0
1413,602.0,602.0,543.0,48.0,81.0,60.0
1414,602.0,601.0,543.0,48.0,80.0,60.0
1415,601.0,602.0,543.0,46.0,79.0,59.0
1416,602.0,603.0,543.0,47.0,78.0,59.0
1417,603.0,603.0,543.0,46.0,78.0,58.0
1418,603.0,603.0,543.0,46.0,77.0,58.0
1419,603.0,603.0,542.0,45.0,78.0,57.0
1420,603.0,603.0,543.0,45.0,75.0,56.0
1421,603.0,603.0,542.0,44.0,75.0,56.0
1422,603.0,603.0,543.0,44.0,75.0,56.0
1423,603.0,603.0,543.0,44.0,73.0,54.0
1424,603.0,603.0,544.0,43.0,74.0,55.0
1425,603.0,603.0,544.0,43.0,72.0,55.0
1426,603.0,604.0,544.0,42.0,71.0,54.0
1427,604.0,604.0,544.0,42.0,71.0,53.0
1428,604.0,604.0,544.0,42.0,71.0,53.0
1429,604.0,603.0,543.0,42.0,70.0,52.0
1430,603.0,602.0,542.0,42.0,69.0,52.0
1431,602.0,602.0,543.0,41.0,69.0,51.0
1432,602.0,602.0,544.0,40.0,68.0,51.0
1433,602.0,602.0,544.0,40.0,68.0,51.0
1434,602.0,602.0,544.0,40.0,67.0,50.0
1435,602.0,604.0,544.0,39.0,66.0,50.0
1436,604.0,604.0,545.0,39.0,66.0,49.0
1437,604.0,603.0,544.0,39.0,65.0,49.0
1438,603.0,603.0,543.0,39.0,64.0,49.0
1439,603.0,604.0,544.0,38.0,64.0,48.0
1440,604.0,604.0,544.0,38.0,64.0,47.0
1441,604.0,603.0,543.0,38.0,63.0,47.0
1442,603.0,603.0,543.0,37.0,62.0,47.0
1443,603.0,603.0,544.0,37.0,62.0,47.0
1444,603.0,604.0,544.0,37.0,62.0,46.0
1445,604.0,604.0,544.0,37.0,61.0,45.0
1446,604.0,604.0,544.0,36.0,60.0,46.0
1447,604.0,604.0,544.0,35.0,60.0,45.0
1448,604.0,604.0,544.0,36.0,59.0,45.0
1449,604.0,604.0,544.0,35.0,58.0,44.0
1450,604.0,604.0,544.0,35.0,58.0,44.0
1451,604.0,604.0,544.0,35.0,58.0,43.0
1452,604.0,603.0,543.0,35.0,57.0,43.0
1453,603.0,602.0,543.0,34.0,57.0,43.0
1454,602.0,603.0,543.0,34.0,57.0,42.0
1455,603.0,603.0,544.0,33.0,56.0,43.0
1456,603.0,603.0,545.0,33.0,55.0,42.0
1457,603.0,603.0,544.0,33.0,55.0,42.0
1458,603.0,603.0,545.0,33.0,54.0,41.0
1459,603.0,603.0,544.0,32.0,53.0,41.0
1460,603.0,603.0,545.0,33.0,54.0,40.0
1461,603.0,603.0,544.0,55.0,53.0,40.0
1462,603.0,602.0,543.0,54.0,52.0,39.0
1463,602.0,602.0,543.0,53.0,52.0,39.0
1464,602.0,602.0,543.0,54.0,52.0,39.0
1465,602.0,602.0,542.0,52.0,52.0,49.0
1466,602.0,602.0,544.0,52.0,51.0,48.0
1467,602.0,601.0,543.0,51.0,51.0,48.0
1468,601.0,602.0,544.0,49.0,51.0,47.0
1469,602.0,602.0,544.0,50.0,50.0,47.0
1470,602.0,603.0,544.0,49.0,50.0,47.0
1471,603.0,602.0,544.0,49.0,49.0,46.0
1472,602.0,602.0,544.0,48.0,48.0,46.0
1473,602.0,602.0,543.0,48.0,49.0,45.0
1474,602.0,602.0,543.0,47.0,48.0,44.0
1475,602.0,602.0,543.0,47.0,48.0,44.0
1476,602.0,601.0,542.0,47.0,48.0,44.0
1477,601.0,600.0,543.0,46.0,47.0,43.0
1478,600.0,601.0,545.0,45.0,48.0,124.0
1479,601.0,600.0,543.0,45.0,93.0,139.0
1480,600.0,601.0,542.0,45.0,92.0,138.0
1481,601.0,601.0,544.0,45.0,90.0,136.0
1482,601.0,601.0,543.0,44.0,90.0,134.0
1483,601.0,601.0,542.0,44.0,89.0,132.0
1484,601.0,601.0,542.0,43.0,88.0,130.0
1485,601.0,601.0,542.0,42.0,86.0,130.0
1486,601.0,601.0,543.0,42.0,86.0,128.0
1487,601.0,602.0,543.0,43.0,84.0,126.0
1488,602.0,602.0,542.0,42.0,84.0,125.0
1489,602.0,602.0,543.0,41.0,83.0,123.0
1490,602.0,603.0,543.0,41.0,81.0,122.0
1491,603.0,602.0,542.0,41.0,81.0,121.0
1492,602.0,603.0,543.0,40.0,81.0,119.0
1493,603.0,603.0,544.0,40.0,80.0,118.0
1494,603.0,601.0,543.0,40.0,79.0,117.0
1495,601.0,602.0,543.0,39.0,78.0,116.0
1496,602.0,603.0,543.0,38.0,77.0,114.0
1497,603.0,603.0,543.0,38.0,77.0,114.0
1498,603.0,603.0,543.0,38.0,76.0,112.0
1499,603.0,603.0,543.0,37.0,75.0,110.0
1500,603.0,602.0,543.0,37.0,74.0,109.0
1501,602.0,603.0,543.0,37.0,74.0,109.0
1502,603.0,603.0,544.0,37.0,73.0,107.0
1503,603.0,603.0,544.0,36.0,73.0,106.0
1504,603.0,603.0,543.0,36.0,71.0,106.0
1505,603.0,603.0,544.0,36.0,71.0,104.0
1506,603.0,603.0,544.0,35.0,70.0,103.0
1507,603.0,603.0,544.0,35.0,70.0,102.0
1508,603.0,602.0,545.0,35.0,68.0,101.0
1509,602.0,602.0,545.0,35.0,69.0,100.0
1510,602.0,603.0,545.0,34.0,68.0,99.0
1511,603.0,603.0,544.0,35.0,67.0,98.0
1512,603.0,603.0,544.0,34.0,100.0,101.0
1513,603.0,602.0,544.0,33.0,97.0,100.0
1514,602.0,602.0,544.0,33.0,97.0,98.0
1515,602.0,603.0,544.0,33.0,96.0,98.0
1516,603.0,603.0,544.0,32.0,94.0,96.0
1517,603.0,603.0,544.0,32.0,94.0,96.0
1518,603.0,603.0,544.0,32.0,92.0,95.0
1519,603.0,604.0,544.0,32.0,91.0,94.0
1520,604.0,603.0,544.0,31.0,90.0,93.0
1521,603.0,604.0,544.0,32.0,89.0,92.0
1522,604.0,604.0,544.0,30.0,90.0,90.0
1523,604.0,605.0,544.0,32.0,175.0,125.0
1524,605.0,604.0,544.0,30.0,171.0,123.0
1525,604.0,605.0,543.0,30.0,168.0,121.0
1526,605.0,606.0,543.0,30.0,166.0,119.0
1527,606.0,604.0,543.0,30.0,164.0,119.0
1528,604.0,604.0,543.0,91.0,279.0,117.0
1529,604.0,605.0,544.0,89.0,274.0,116.0
1530,605.0,604.0,543.0,87.0,270.0,115.0
1531,604.0,604.0,545.0,86.0,266.0,113.0
1532,604.0,604.0,545.0,85.0,263.0,111.0
1533,604.0,607.0,546.0,84.0,259.0,110.0
1534,607.0,607.0,543.0,83.0,256.0,109.0
1535,607.0,605.0,544.0,83.0,253.0,108.0
1536,605.0,607.0,544.0,81.0,250.0,107.0
1537,607.0,606.0,543.0,83.0,247.0,106.0
1538,606.0,606.0,545.0,83.0,244.0,105.0
1539,606.0,604.0,543.0,81.0,240.0,103.0
1540,604.0,601.0,542.0,81.0,238.0,102.0
1541,601.0,605.0,543.0,79.0,235.0,101.0
1542,605.0,607.0,544.0,79.0,233.0,100.0
1543,607.0,606.0,543.0,78.0,230.0,99.0
1544,606.0,604.0,543.0,77.0,227.0,98.0
1545,604.0,603.0,543.0,76.0,225.0,97.0
1546,603.0,603.0,544.0,75.0,222.0,96.0
1547,603.0,602.0,543.0,75.0,219.0,95.0
1548,602.0,602.0,543.0,74.0,217.0,94.0
1549,602.0,601.0,543.0,73.0,215.0,93.0
1550,601.0,602.0,543.0,73.0,213.0,91.0
1551,602.0,602.0,542.0,71.0,210.0,92.0
1552,602.0,600.0,542.0,71.0,208.0,90.0
1553,600.0,602.0,544.0,70.0,206.0,89.0
1554,602.0,602.0,544.0,70.0,204.0,89.0
1555,602.0,598.0,542.0,70.0,201.0,87.0
1556,598.0,600.0,543.0,69.0,199.0,87.0
1557,600.0,602.0,543.0,69.0,197.0,86.0
1558,602.0,600.0,542.0,67.0,195.0,85.0
1559,600.0,601.0,544.0,67.0,193.0,84.0
1560,601.0,602.0,543.0,66.0,191.0,84.0
1561,602.0,601.0,542.0,66.0,189.0,83.0
1562,601.0,601.0,544.0,65.0,187.0,82.0
1563,601.0,602.0,543.0,64.0,186.0,81.0
1564,602.0,602.0,543.0,63.0,184.0,80.0
1565,602.0,602.0,543.0,63.0,182.0,80.0
1566,602.0,602.0,543.0,62.0,179.0,80.0
1567,602.0,602.0,543.0,62.0,178.0,78.0
1568,602.0,602.0,543.0,61.0,176.0,77.0
1569,602.0,601.0,543.0,61.0,175.0,76.0
1570,601.0,600.0,543.0,60.0,173.0,76.0
1571,600.0,603.0,544.0,59.0,171.0,75.0
1572,603.0,602.0,543.0,59.0,169.0,74.0
1573,602.0,601.0,543.0,58.0,167.0,74.0
1574,601.0,602.0,544.0,58.0,166.0,73.0
1575,602.0,602.0,544.0,58.0,165.0,80.0
1576,602.0,602.0,544.0,57.0,163.0,78.0
1577,602.0,602.0,544.0,57.0,162.0,78.0
1578,602.0,602.0,545.0,56.0,161.0,77.0
1579,602.0,601.0,544.0,55.0,158.0,76.0
1580,601.0,601.0,544.0,55.0,157.0,75.0
1581,601.0,606.0,546.0,54.0,155.0,74.0
1582,606.0,603.0,545.0,53.0,154.0,74.0
1583,603.0,600.0,543.0,54.0,152.0,73.0
1584,600.0,602.0,544.0,53.0,151.0,72.0
1585,602.0,602.0,545.0,53.0,150.0,71.0
1586,602.0,601.0,544.0,52.0,148.0,71.0
1587,601.0,601.0,543.0,51.0,147.0,71.0
1588,601.0,602.0,544.0,52.0,146.0,71.0
1589,602.0,602.0,543.0,50.0,144.0,71.0
1590,602.0,602.0,543.0,50.0,143.0,70.0
1591,602.0,602.0,543.0,49.0,142.0,69.0
1592,602.0,602.0,543.0,49.0,140.0,69.0
1593,602.0,603.0,544.0,49.0,139.0,68.0
1594,603.0,602.0,544.0,49.0,138.0,67.0
1595,602.0,603.0,544.0,48.0,136.0,66.0
1596,603.0,602.0,543.0,47.0,135.0,66.0
1597,602.0,601.0,542.0,47.0,134.0,65.0
1598,601.0,604.0,543.0,47.0,132.0,65.0
1599,604.0,607.0,545.0,46.0,132.0,64.0
1600,607.0,606.0,544.0,46.0,130.0,64.0
1601,606.0,605.0,543.0,45.0,129.0,64.0
1602,605.0,606.0,543.0,44.0,128.0,62.0
1603,606.0,606.0,544.0,44.0,127.0,62.0
1604,606.0,605.0,543.0,45.0,125.0,62.0
1605,605.0,605.0,543.0,44.0,124.0,61.0
1606,605.0,605.0,543.0,43.0,124.0,60.0
1607,605.0,605.0,543.0,43.0,122.0,60.0
1608,605.0,605.0,543.0,43.0,122.0,59.0
1609,605.0,605.0,543.0,42.0,120.0,59.0
1610,605.0,604.0,543.0,42.0,119.0,58.0
1611,604.0,604.0,543.0,41.0,118.0,58.0
1612,604.0,604.0,543.0,42.0,116.0,57.0
1613,604.0,602.0,543.0,41.0,116.0,56.0
1614,602.0,603.0,543.0,41.0,115.0,56.0
1615,603.0,604.0,544.0,40.0,114.0,79.0
1616,604.0,604.0,545.0,39.0,112.0,81.0
1617,604.0,604.0,545.0,39.0,111.0,80.0
1618,604.0,603.0,544.0,39.0,111.0,79.0
1619,603.0,604.0,545.0,39.0,110.0,78.0
1620,604.0,605.0,546.0,37.0,108.0,77.0
1621,605.0,603.0,545.0,39.0,107.0,77.0
1622,603.0,603.0,545.0,38.0,107.0,76.0
1623,603.0,604.0,545.0,38.0,105.0,75.0
1624,604.0,603.0,545.0,37.0,104.0,74.0
1625,603.0,603.0,544.0,37.0,103.0,73.0
1626,603.0,603.0,545.0,51.0,103.0,73.0
1627,603.0,603.0,544.0,87.0,102.0,71.0
1628,603.0,603.0,544.0,87.0,101.0,71.0
1629,603.0,603.0,545.0,86.0,100.0,70.0
1630,603.0,603.0,545.0,85.0,99.0,69.0
1631,603.0,601.0,544.0,84.0,98.0,68.0
1632,601.0,604.0,543.0,83.0,97.0,68.0
1633,604.0,606.0,546.0,82.0,97.0,68.0
1634,606.0,605.0,543.0,85.0,96.0,77.0
1635,605.0,603.0,541.0,83.0,95.0,77.0
1636,603.0,604.0,542.0,83.0,95.0,77.0
1637,604.0,604.0,542.0,82.0,94.0,76.0
1638,604.0,602.0,541.0,81.0,93.0,75.0
1639,602.0,602.0,542.0,81.0,92.0,75.0
1640,602.0,602.0,542.0,80.0,91.0,73.0
1641,602.0,602.0,543.0,79.0,90.0,73.0
1642,602.0,602.0,543.0,78.0,90.0,72.0
1643,602.0,602.0,543.0,78.0,89.0,72.0
1644,602.0,602.0,542.0,78.0,89.0,72.0
1645,602.0,602.0,542.0,76.0,87.0,70.0
1646,602.0,602.0,542.0,75.0,86.0,70.0
1647,602.0,602.0,542.0,74.0,86.0,68.0
1648,602.0,602.0,542.0,74.0,86.0,68.0
1649,602.0,602.0,542.0,73.0,85.0,67.0
1650,602.0,602.0,542.0,72.0,84.0,67.0
1651,602.0,603.0,543.0,71.0,84.0,65.0
1652,603.0,603.0,542.0,71.0,83.0,65.0
1653,603.0,604.0,543.0,70.0,82.0,64.0
1654,604.0,605.0,543.0,70.0,81.0,64.0
1655,605.0,605.0,543.0,69.0,80.0,64.0
1656,605.0,605.0,544.0,68.0,80.0,63.0
1657,605.0,605.0,543.0,68.0,79.0,62.0
1658,605.0,604.0,544.0,66.0,78.0,61.0
1659,604.0,603.0,544.0,67.0,77.0,61.0
1660,603.0,602.0,544.0,66.0,77.0,60.0
1661,602.0,603.0,543.0,65.0,76.0,60.0
1662,603.0,603.0,543.0,64.0,76.0,59.0
1663,603.0,603.0,543.0,64.0,75.0,59.0
1664,603.0,603.0,543.0,63.0,75.0,58.0
1665,603.0,602.0,543.0,64.0,73.0,57.0
1666,602.0,600.0,544.0,65.0,73.0,57.0
1667,600.0,601.0,544.0,64.0,73.0,56.0
1668,601.0,601.0,545.0,63.0,71.0,55.0
1669,601.0,601.0,544.0,62.0,71.0,55.0
1670,601.0,602.0,545.0,62.0,70.0,55.0
1671,602.0,599.0,542.0,61.0,70.0,54.0
1672,599.0,603.0,543.0,61.0,70.0,53.0
1673,603.0,608.0,544.0,60.0,68.0,54.0
1674,608.0,604.0,542.0,59.0,68.0,53.0
1675,604.0,602.0,540.0,59.0,69.0,52.0
1676,602.0,603.0,541.0,59.0,68.0,57.0
1677,603.0,602.0,541.0,59.0,67.0,57.0
1678,602.0,601.0,540.0,57.0,67.0,56.0
1679,601.0,600.0,541.0,57.0,66.0,55.0
1680,600.0,603.0,542.0,60.0,144.0,104.0
1681,603.0,603.0,542.0,86.0,142.0,102.0
1682,603.0,602.0,542.0,84.0,141.0,100.0
1683,602.0,601.0,542.0,83.0,138.0,99.0
1684,601.0,600.0,542.0,83.0,136.0,98.0
1685,600.0,607.0,544.0,81.0,137.0,97.0
1686,607.0,609.0,546.0,80.0,134.0,96.0
1687,609.0,606.0,544.0,80.0,132.0,94.0
1688,606.0,606.0,543.0,79.0,131.0,93.0
1689,606.0,606.0,544.0,79.0,129.0,93.0
1690,606.0,605.0,543.0,77.0,128.0,92.0
1691,605.0,601.0,541.0,77.0,126.0,90.0
1692,601.0,599.0,541.0,76.0,125.0,90.0
1693,599.0,602.0,542.0,75.0,124.0,89.0
1694,602.0,606.0,544.0,74.0,123.0,88.0
1695,606.0,606.0,544.0,74.0,121.0,87.0
1696,606.0,605.0,543.0,72.0,120.0,86.0
1697,605.0,605.0,543.0,72.0,119.0,85.0
1698,605.0,605.0,544.0,71.0,118.0,84.0
1699,605.0,604.0,543.0,71.0,116.0,83.0
1700,604.0,603.0,542.0,70.0,115.0,82.0
1701,603.0,602.0,542.0,69.0,114.0,82.0
1702,602.0,601.0,542.0,69.0,113.0,81.0
1703,601.0,600.0,542.0,68.0,112.0,80.0
1704,600.0,601.0,542.0,67.0,110.0,79.0
1705,601.0,605.0,543.0,67.0,109.0,78.0
1706,605.0,605.0,544.0,66.0,108.0,78.0
1707,605.0,603.0,542.0,65.0,108.0,77.0
1708,603.0,603.0,542.0,65.0,107.0,76.0
1709,603.0,604.0,544.0,65.0,106.0,75.0
1710,604.0,603.0,543.0,64.0,104.0,75.0
1711,603.0,602.0,542.0,63.0,103.0,74.0
1712,602.0,603.0,542.0,62.0,103.0,73.0
1713,603.0,603.0,543.0,61.0,102.0,73.0
1714,603.0,603.0,542.0,61.0,116.0,77.0
1715,603.0,603.0,542.0,60.0,115.0,77.0
1716,603.0,604.0,542.0,60.0,113.0,76.0
1717,604.0,603.0,542.0,60.0,112.0,75.0
1718,603.0,603.0,542.0,59.0,111.0,74.0
1719,603.0,603.0,542.0,58.0,110.0,74.0
1720,603.0,604.0,542.0,59.0,109.0,73.0
1721,604.0,604.0,542.0,57.0,108.0,73.0
1722,604.0,605.0,542.0,56.0,107.0,71.0
1723,605.0,604.0,542.0,56.0,105.0,71.0
1724,604.0,604.0,542.0,55.0,103.0,69.0
1725,604.0,603.0,542.0,55.0,103.0,69.0
1726,603.0,603.0,542.0,55.0,102.0,68.0
1727,603.0,603.0,542.0,54.0,101.0,68.0
1728,603.0,603.0,543.0,54.0,100.0,68.0
1729,603.0,602.0,544.0,53.0,99.0,66.0
1730,602.0,603.0,544.0,53.0,98.0,66.0
1731,603.0,603.0,544.0,52.0,97.0,65.0
1732,603.0,603.0,544.0,51.0,96.0,65.0
1733,603.0,604.0,544.0,51.0,96.0,64.0
1734,604.0,604.0,543.0,51.0,96.0,63.0
1735,604.0,605.0,542.0,51.0,93.0,63.0
1736,605.0,604.0,542.0,50.0,93.0,62.0
1737,604.0,604.0,542.0,50.0,92.0,61.0
1738,604.0,603.0,542.0,49.0,91.0,62.0
1739,603.0,602.0,542.0,48.0,89.0,61.0
1740,602.0,603.0,541.0,49.0,90.0,60.0
1741,603.0,602.0,542.0,48.0,89.0,59.0
1742,602.0,603.0,541.0,47.0,88.0,59.0
1743,603.0,603.0,542.0,47.0,88.0,58.0
1744,603.0,604.0,542.0,46.0,86.0,58.0
1745,604.0,604.0,542.0,46.0,85.0,57.0
1746,604.0,604.0,543.0,45.0,85.0,56.0
1747,604.0,604.0,543.0,45.0,84.0,56.0
1748,604.0,603.0,542.0,45.0,83.0,56.0
1749,603.0,603.0,542.0,44.0,83.0,55.0
1750,603.0,603.0,543.0,44.0,81.0,54.0
1751,603.0,603.0,542.0,44.0,81.0,53.0
1752,603.0,603.0,542.0,43.0,80.0,54.0
1753,603.0,604.0,542.0,43.0,79.0,53.0
1754,604.0,603.0,541.0,43.0,79.0,53.0
1755,603.0,602.0,541.0,42.0,78.0,52.0
1756,602.0,602.0,541.0,42.0,77.0,52.0
1757,602.0,603.0,542.0,41.0,77.0,51.0
1758,603.0,603.0,542.0,42.0,76.0,51.0
1759,603.0,604.0,543.0,41.0,75.0,50.0
1760,604.0,603.0,543.0,41.0,74.0,50.0
1761,603.0,604.0,543.0,40.0,74.0,49.0
1762,604.0,603.0,543.0,39.0,73.0,49.0
1763,603.0,603.0,544.0,39.0,73.0,49.0
1764,603.0,604.0,544.0,39.0,72.0,48.0
1765,604.0,604.0,544.0,39.0,71.0,48.0
1766,604.0,604.0,543.0,38.0,71.0,47.0
1767,604.0,604.0,544.0,38.0,70.0,47.0
1768,604.0,602.0,542.0,38.0,70.0,47.0
1769,602.0,603.0,543.0,38.0,68.0,46.0
1770,603.0,605.0,544.0,37.0,68.0,46.0
1771,605.0,603.0,544.0,37.0,68.0,45.0
1772,603.0,602.0,543.0,37.0,67.0,45.0
1773,602.0,604.0,543.0,37.0,66.0,44.0
1774,604.0,604.0,543.0,36.0,65.0,43.0
1775,604.0,604.0,543.0,36.0,65.0,44.0
1776,604.0,604.0,543.0,35.0,65.0,44.0
1777,604.0,604.0,543.0,35.0,64.0,43.0
1778,604.0,604.0,542.0,35.0,64.0,43.0
1779,604.0,606.0,544.0,75.0,62.0,43.0
1780,606.0,602.0,539.0,75.0,63.0,42.0
1781,602.0,600.0,540.0,75.0,61.0,42.0
1782,600.0,604.0,543.0,74.0,62.0,41.0
1783,604.0,604.0,544.0,72.0,61.0,41.0
1784,604.0,604.0,543.0,71.0,61.0,41.0
1785,604.0,603.0,543.0,71.0,60.0,41.0
1786,603.0,604.0,542.0,70.0,60.0,41.0
1787,604.0,604.0,542.0,70.0,59.0,40.0
1788,604.0,604.0,542.0,69.0,59.0,40.0
1789,604.0,604.0,542.0,69.0,58.0,40.0
1790,604.0,603.0,542.0,67.0,57.0,39.0
1791,603.0,603.0,542.0,66.0,57.0,39.0
1792,603.0,603.0,542.0,67.0,56.0,38.0
1793,603.0,603.0,542.0,66.0,57.0,38.0
1794,603.0,604.0,543.0,64.0,56.0,38.0
1795,604.0,603.0,543.0,64.0,55.0,38.0
1796,603.0,603.0,543.0,64.0,54.0,38.0
1797,603.0,602.0,544.0,63.0,55.0,37.0
1798,602.0,603.0,544.0,61.0,54.0,37.0
1799,603.0,602.0,544.0,62.0,53.0,37.0
1800,602.0,603.0,544.0,61.0,53.0,36.0
1801,603.0,603.0,544.0,60.0,52.0,37.0
1802,603.0,603.0,544.0,60.0,52.0,36.0
1803,603.0,603.0,544.0,59.0,52.0,36.0
1804,603.0,603.0,543.0,58.0,51.0,35.0
1805,603.0,603.0,543.0,59.0,51.0,35.0
1806,603.0,602.0,544.0,58.0,50.0,35.0
1807,602.0,602.0,543.0,57.0,50.0,34.0
1808,602.0,602.0,543.0,57.0,50.0,35.0
1809,602.0,603.0,543.0,56.0,50.0,34.0
1810,603.0,604.0,543.0,55.0,49.0,33.0
1811,604.0,603.0,543.0,55.0,48.0,33.0
1812,603.0,603.0,543.0,54.0,47.0,33.0
1813,603.0,602.0,544.0,54.0,48.0,33.0
1814,602.0,603.0,544.0,86.0,47.0,32.0
1815,603.0,602.0,544.0,84.0,47.0,33.0
1816,602.0,602.0,544.0,84.0,46.0,32.0
1817,602.0,602.0,545.0,83.0,46.0,32.0
1818,602.0,602.0,544.0,81.0,47.0,31.0
1819,602.0,602.0,543.0,81.0,45.0,31.0
1820,602.0,602.0,544.0,80.0,46.0,31.0
1821,602.0,602.0,543.0,79.0,45.0,31.0
1822,602.0,602.0,543.0,79.0,44.0,30.0
1823,602.0,602.0,543.0,77.0,46.0,30.0
1824,602.0,603.0,543.0,77.0,46.0,30.0
1825,603.0,603.0,543.0,76.0,44.0,30.0
1826,603.0,603.0,543.0,75.0,44.0,30.0
1827,603.0,603.0,542.0,75.0,44.0,29.0
1828,603.0,602.0,542.0,74.0,44.0,29.0
1829,602.0,603.0,542.0,74.0,43.0,29.0
1830,603.0,605.0,542.0,72.0,43.0,29.0
1831,605.0,606.0,542.0,72.0,43.0,29.0
1832,606.0,606.0,543.0,73.0,42.0,28.0
1833,606.0,605.0,542.0,70.0,42.0,28.0
1834,605.0,605.0,542.0,70.0,42.0,28.0
1835,605.0,605.0,543.0,69.0,42.0,28.0
1836,605.0,604.0,542.0,69.0,41.0,27.0
1837,604.0,605.0,542.0,69.0,41.0,27.0
1838,605.0,604.0,542.0,67.0,40.0,27.0
1839,604.0,605.0,541.0,67.0,40.0,27.0
1840,605.0,605.0,542.0,66.0,39.0,27.0
1841,605.0,604.0,542.0,65.0,39.0,27.0
1842,604.0,605.0,542.0,65.0,38.0,26.0
1843,605.0,604.0,542.0,64.0,39.0,26.0
1844,604.0,604.0,542.0,63.0,47.0,33.0
1845,604.0,604.0,542.0,63.0,46.0,33.0
1846,604.0,603.0,543.0,62.0,45.0,33.0
1847,603.0,603.0,543.0,62.0,45.0,32.0
1848,603.0,603.0,543.0,61.0,45.0,31.0
1849,603.0,602.0,543.0,61.0,44.0,32.0
1850,602.0,602.0,543.0,60.0,44.0,32.0
1851,602.0,603.0,543.0,59.0,43.0,31.0
1852,603.0,602.0,543.0,59.0,43.0,29.0
1853,602.0,603.0,544.0,58.0,42.0,30.0
1854,603.0,602.0,543.0,58.0,43.0,30.0
1855,602.0,602.0,544.0,57.0,42.0,30.0
1856,602.0,602.0,544.0,57.0,40.0,31.0
1857,602.0,601.0,543.0,56.0,41.0,29.0
1858,601.0,601.0,543.0,56.0,41.0,29.0
1859,601.0,601.0,543.0,55.0,40.0,29.0
1860,601.0,601.0,543.0,55.0,39.0,29.0
1861,601.0,601.0,544.0,55.0,40.0,29.0
1862,601.0,601.0,544.0,54.0,39.0,29.0
1863,601.0,601.0,544.0,54.0,38.0,28.0
1864,601.0,601.0,544.0,53.0,38.0,27.0
1865,601.0,602.0,544.0,53.0,39.0,27.0
1866,602.0,602.0,543.0,53.0,37.0,27.0
1867,602.0,602.0,543.0,51.0,69.0,102.0
1868,602.0,602.0,543.0,51.0,67.0,100.0
1869,602.0,603.0,542.0,51.0,66.0,99.0
1870,603.0,604.0,542.0,51.0,66.0,98.0
1871,604.0,605.0,541.0,50.0,65.0,97.0
1872,605.0,605.0,542.0,50.0,64.0,95.0
1873,605.0,605.0,541.0,49.0,63.0,94.0
1874,605.0,605.0,541.0,49.0,63.0,93.0
1875,605.0,605.0,541.0,48.0,63.0,92.0
1876,605.0,605.0,542.0,48.0,62.0,92.0
1877,605.0,605.0,541.0,48.0,61.0,91.0
1878,605.0,605.0,542.0,47.0,60.0,90.0
1879,605.0,605.0,541.0,57.0,60.0,88.0
1880,605.0,604.0,541.0,60.0,59.0,89.0
1881,604.0,604.0,541.0,59.0,58.0,87.0
1882,604.0,604.0,541.0,58.0,59.0,86.0
1883,604.0,603.0,541.0,58.0,58.0,85.0
1884,603.0,603.0,542.0,57.0,57.0,84.0
1885,603.0,603.0,543.0,57.0,57.0,83.0
1886,603.0,603.0,543.0,56.0,56.0,83.0
1887,603.0,603.0,543.0,55.0,55.0,82.0
1888,603.0,602.0,544.0,53.0,54.0,81.0
1889,602.0,602.0,544.0,54.0,54.0,80.0
1890,602.0,602.0,544.0,53.0,54.0,79.0
1891,602.0,601.0,544.0,53.0,53.0,79.0
1892,601.0,602.0,544.0,53.0,52.0,77.0
1893,602.0,602.0,544.0,52.0,52.0,77.0
1894,602.0,601.0,544.0,52.0,52.0,76.0
1895,601.0,601.0,544.0,51.0,52.0,75.0
1896,601.0,601.0,544.0,52.0,50.0,75.0
1897,601.0,601.0,544.0,50.0,50.0,74.0
1898,601.0,601.0,545.0,50.0,50.0,73.0
1899,601.0,602.0,544.0,50.0,50.0,72.0
1900,602.0,602.0,544.0,49.0,49.0,72.0
1901,602.0,603.0,544.0,49.0,48.0,72.0
1902,603.0,603.0,544.0,48.0,48.0,70.0
1903,603.0,603.0,543.0,48.0,48.0,70.0
1904,603.0,603.0,543.0,47.0,48.0,69.0
1905,603.0,603.0,543.0,119.0,49.0,69.0
1906,603.0,603.0,543.0,116.0,48.0,67.0
1907,603.0,603.0,543.0,114.0,48.0,67.0
1908,603.0,605.0,543.0,113.0,48.0,66.0
1909,605.0,605.0,544.0,111.0,47.0,65.0
1910,605.0,606.0,543.0,111.0,46.0,66.0
1911,606.0,607.0,543.0,109.0,47.0,65.0
1912,607.0,607.0,543.0,109.0,46.0,64.0
1913,607.0,607.0,543.0,107.0,46.0,63.0
1914,607.0,606.0,543.0,105.0,45.0,62.0
1915,606.0,605.0,542.0,105.0,45.0,62.0
1916,605.0,605.0,542.0,103.0,45.0,62.0
1917,605.0,604.0,542.0,103.0,44.0,61.0
1918,604.0,604.0,542.0,101.0,43.0,60.0
1919,604.0,604.0,543.0,101.0,43.0,60.0
1920,604.0,604.0,543.0,99.0,42.0,59.0
1921,604.0,605.0,544.0,99.0,42.0,59.0
1922,605.0,605.0,543.0,97.0,42.0,57.0
1923,605.0,605.0,543.0,97.0,42.0,58.0
1924,605.0,604.0,543.0,94.0,41.0,57.0
1925,604.0,604.0,543.0,94.0,41.0,56.0
1926,604.0,604.0,543.0,94.0,41.0,56.0
1927,604.0,603.0,543.0,93.0,40.0,55.0
1928,603.0,602.0,544.0,92.0,39.0,55.0
1929,602.0,602.0,543.0,91.0,39.0,54.0
1930,602.0,602.0,543.0,91.0,39.0,54.0
1931,602.0,603.0,544.0,90.0,39.0,54.0
1932,603.0,603.0,543.0,89.0,38.0,53.0
1933,603.0,603.0,543.0,87.0,38.0,52.0
1934,603.0,603.0,543.0,87.0,38.0,52.0
1935,603.0,602.0,543.0,86.0,37.0,51.0
1936,602.0,602.0,543.0,85.0,37.0,51.0
1937,602.0,601.0,543.0,83.0,38.0,50.0
1938,601.0,601.0,542.0,84.0,37.0,50.0
1939,601.0,601.0,541.0,83.0,36.0,50.0
1940,601.0,601.0,542.0,82.0,36.0,49.0
1941,601.0,600.0,542.0,82.0,35.0,49.0
1942,600.0,601.0,542.0,81.0,36.0,48.0
1943,601.0,600.0,541.0,80.0,36.0,48.0
1944,600.0,600.0,542.0,80.0,35.0,47.0
1945,600.0,600.0,542.0,79.0,35.0,47.0
1946,600.0,601.0,542.0,79.0,34.0,47.0
1947,601.0,601.0,543.0,78.0,34.0,46.0
1948,601.0,601.0,543.0,77.0,34.0,57.0
1949,601.0,600.0,542.0,75.0,33.0,55.0
1950,600.0,603.0,542.0,75.0,33.0,55.0
1951,603.0,603.0,542.0,75.0,34.0,54.0
1952,603.0,602.0,542.0,74.0,33.0,54.0
1953,602.0,602.0,542.0,73.0,63.0,54.0
1954,602.0,603.0,541.0,73.0,62.0,53.0
1955,603.0,603.0,541.0,72.0,61.0,52.0
1956,603.0,603.0,541.0,71.0,61.0,51.0
1957,603.0,604.0,542.0,71.0,60.0,55.0
1958,604.0,604.0,541.0,71.0,59.0,54.0
1959,604.0,605.0,542.0,70.0,58.0,53.0
1960,605.0,605.0,543.0,69.0,58.0,53.0
1961,605.0,605.0,543.0,68.0,59.0,53.0
1962,605.0,605.0,544.0,68.0,57.0,52.0
1963,605.0,606.0,543.0,67.0,57.0,54.0
1964,606.0,605.0,543.0,67.0,84.0,54.0
1965,605.0,605.0,543.0,66.0,82.0,53.0
1966,605.0,606.0,543.0,65.0,82.0,53.0
1967,606.0,605.0,543.0,65.0,81.0,52.0
1968,605.0,605.0,544.0,64.0,79.0,52.0
1969,605.0,605.0,543.0,64.0,79.0,51.0
1970,605.0,604.0,543.0,64.0,80.0,51.0
1971,604.0,603.0,543.0,62.0,78.0,50.0
1972,603.0,606.0,545.0,62.0,77.0,50.0
1973,606.0,602.0,542.0,70.0,76.0,49.0
1974,602.0,600.0,543.0,70.0,75.0,49.0
1975,600.0,603.0,545.0,69.0,75.0,48.0
1976,603.0,604.0,545.0,68.0,74.0,47.0
1977,604.0,602.0,545.0,68.0,73.0,47.0
1978,602.0,599.0,543.0,158.0,73.0,47.0
1979,599.0,600.0,543.0,156.0,71.0,46.0
1980,600.0,602.0,545.0,153.0,71.0,46.0
1981,602.0,603.0,546.0,151.0,70.0,46.0
1982,603.0,600.0,545.0,150.0,69.0,45.0
1983,600.0,602.0,545.0,148.0,69.0,45.0
1984,602.0,608.0,548.0,147.0,68.0,45.0
1985,608.0,605.0,547.0,145.0,67.0,44.0
1986,605.0,604.0,545.0,144.0,67.0,66.0
1987,604.0,603.0,546.0,142.0,66.0,65.0
1988,603.0,604.0,547.0,141.0,65.0,64.0
1989,604.0,603.0,546.0,139.0,64.0,64.0
1990,603.0,603.0,545.0,138.0,64.0,63.0
1991,603.0,603.0,545.0,136.0,64.0,62.0
1992,603.0,603.0,545.0,135.0,64.0,62.0
1993,603.0,603.0,545.0,133.0,62.0,62.0
1994,603.0,603.0,545.0,132.0,61.0,61.0
1995,603.0,604.0,544.0,131.0,61.0,60.0
1996,604.0,602.0,544.0,130.0,60.0,60.0
1997,602.0,602.0,544.0,129.0,60.0,59.0
1998,602.0,601.0,544.0,126.0,59.0,59.0
1999,601.0,604.0,545.0,125.0,59.0,58.0
2000,604.0,605.0,545.0,125.0,58.0,57.0
2001,605.0,603.0,543.0,123.0,58.0,56.0
2002,603.0,603.0,542.0,122.0,57.0,56.0
2003,603.0,603.0,542.0,121.0,57.0,55.0
2004,603.0,603.0,542.0,120.0,56.0,55.0
2005,603.0,602.0,543.0,119.0,55.0,55.0
2006,602.0,603.0,542.0,118.0,55.0,55.0
2007,603.0,602.0,542.0,116.0,54.0,53.0
2008,602.0,603.0,542.0,115.0,54.0,53.0
2009,603.0,602.0,542.0,113.0,54.0,52.0
2010,602.0,602.0,542.0,113.0,53.0,52.0
2011,602.0,602.0,542.0,112.0,53.0,51.0
2012,602.0,602.0,542.0,111.0,52.0,51.0
2013,602.0,601.0,542.0,110.0,52.0,50.0
2014,601.0,601.0,543.0,108.0,51.0,57.0
2015,601.0,602.0,543.0,108.0,51.0,57.0
2016,602.0,602.0,543.0,107.0,50.0,56.0
2017,602.0,602.0,543.0,105.0,50.0,55.0
2018,602.0,602.0,542.0,105.0,49.0,55.0
2019,602.0,600.0,542.0,103.0,49.0,55.0
2020,600.0,601.0,542.0,102.0,49.0,54.0
2021,601.0,601.0,543.0,102.0,48.0,54.0
2022,601.0,601.0,542.0,100.0,48.0,52.0
2023,601.0,602.0,542.0,100.0,48.0,52.0
2024,602.0,601.0,543.0,98.0,47.0,52.0
2025,601.0,601.0,542.0,98.0,46.0,51.0
2026,601.0,601.0,542.0,97.0,47.0,50.0
2027,601.0,600.0,543.0,96.0,46.0,50.0
2028,600.0,600.0,543.0,95.0,46.0,49.0
2029,600.0,601.0,543.0,94.0,46.0,50.0
2030,601.0,601.0,543.0,94.0,46.0,49.0
2031,601.0,601.0,544.0,92.0,46.0,48.0
2032,601.0,602.0,543.0,92.0,46.0,48.0
2033,602.0,602.0,543.0,91.0,45.0,47.0
2034,602.0,602.0,543.0,91.0,44.0,47.0
2035,602.0,602.0,543.0,89.0,44.0,46.0
2036,602.0,602.0,543.0,89.0,44.0,46.0
2037,602.0,601.0,543.0,87.0,43.0,45.0
2038,601.0,601.0,543.0,87.0,43.0,45.0
2039,601.0,601.0,543.0,86.0,42.0,46.0
2040,601.0,602.0,543.0,85.0,42.0,44.0
2041,602.0,602.0,542.0,85.0,42.0,43.0
2042,602.0,603.0,543.0,84.0,41.0,44.0
2043,603.0,602.0,543.0,84.0,40.0,43.0
2044,602.0,603.0,542.0,82.0,41.0,42.0
2045,603.0,604.0,543.0,81.0,40.0,42.0
2046,604.0,603.0,542.0,82.0,71.0,42.0
2047,603.0,603.0,543.0,81.0,69.0,42.0
2048,603.0,603.0,542.0,80.0,69.0,42.0
2049,603.0,603.0,542.0,79.0,67.0,41.0
2050,603.0,603.0,543.0,79.0,66.0,40.0
2051,603.0,604.0,543.0,77.0,65.0,41.0
2052,604.0,604.0,542.0,77.0,65.0,39.0
2053,604.0,604.0,542.0,77.0,65.0,39.0
2054,604.0,605.0,542.0,76.0,64.0,39.0
2055,605.0,605.0,542.0,75.0,64.0,71.0
2056,605.0,605.0,542.0,74.0,63.0,69.0
2057,605.0,605.0,542.0,74.0,62.0,68.0
2058,605.0,604.0,542.0,73.0,61.0,67.0
2059,604.0,604.0,542.0,73.0,61.0,66.0
2060,604.0,604.0,543.0,71.0,60.0,66.0
2061,604.0,604.0,543.0,70.0,59.0,65.0
2062,604.0,603.0,543.0,70.0,58.0,64.0
2063,603.0,604.0,544.0,70.0,59.0,63.0
2064,604.0,603.0,544.0,69.0,58.0,63.0
2065,603.0,604.0,545.0,69.0,58.0,62.0
2066,604.0,605.0,545.0,68.0,56.0,62.0
2067,605.0,604.0,545.0,67.0,56.0,62.0
2068,604.0,604.0,545.0,67.0,56.0,61.0
2069,604.0,604.0,544.0,67.0,56.0,59.0
2070,604.0,603.0,544.0,66.0,55.0,60.0
2071,603.0,603.0,544.0,65.0,54.0,59.0
2072,603.0,603.0,544.0,65.0,54.0,58.0
2073,603.0,603.0,544.0,64.0,53.0,57.0
2074,603.0,602.0,544.0,64.0,53.0,57.0
2075,602.0,602.0,544.0,63.0,52.0,56.0
2076,602.0,603.0,544.0,63.0,52.0,56.0
2077,603.0,603.0,544.0,63.0,51.0,55.0
2078,603.0,604.0,545.0,62.0,51.0,55.0
2079,604.0,604.0,545.0,61.0,51.0,53.0
2080,604.0,604.0,545.0,61.0,89.0,89.0
2081,604.0,604.0,545.0,60.0,87.0,87.0
2082,604.0,603.0,545.0,60.0,85.0,87.0
2083,603.0,603.0,544.0,59.0,84.0,85.0
2084,603.0,602.0,544.0,58.0,84.0,85.0
2085,602.0,602.0,544.0,58.0,82.0,83.0
2086,602.0,603.0,544.0,58.0,81.0,83.0
2087,603.0,602.0,543.0,56.0,81.0,82.0
2088,602.0,603.0,543.0,56.0,80.0,81.0
2089,603.0,603.0,544.0,56.0,79.0,80.0
2090,603.0,603.0,544.0,56.0,78.0,79.0
2091,603.0,604.0,544.0,55.0,78.0,79.0
2092,604.0,603.0,543.0,55.0,76.0,79.0
2093,603.0,604.0,543.0,55.0,77.0,76.0
2094,604.0,603.0,543.0,57.0,76.0,76.0
2095,603.0,603.0,542.0,58.0,75.0,75.0
2096,603.0,603.0,542.0,58.0,74.0,73.0
2097,603.0,603.0,543.0,57.0,73.0,74.0
2098,603.0,603.0,542.0,57.0,72.0,72.0
2099,603.0,604.0,542.0,56.0,70.0,72.0
2100,604.0,605.0,543.0,55.0,71.0,71.0
2101,605.0,603.0,542.0,55.0,69.0,70.0
2102,603.0,602.0,542.0,55.0,70.0,70.0
2103,602.0,604.0,543.0,54.0,103.0,96.0
2104,604.0,605.0,542.0,53.0,101.0,94.0
2105,605.0,604.0,542.0,52.0,96.0,94.0
2106,604.0,604.0,542.0,52.0,98.0,92.0
2107,604.0,605.0,542.0,52.0,98.0,91.0
2108,605.0,604.0,543.0,52.0,96.0,90.0
2109,604.0,604.0,542.0,51.0,96.0,90.0
2110,604.0,604.0,542.0,51.0,95.0,87.0
2111,604.0,604.0,542.0,51.0,93.0,87.0
2112,604.0,603.0,543.0,49.0,93.0,87.0
2113,603.0,603.0,543.0,51.0,91.0,85.0
2114,603.0,603.0,543.0,49.0,91.0,85.0
2115,603.0,602.0,543.0,49.0,90.0,84.0
2116,602.0,602.0,544.0,49.0,89.0,83.0
2117,602.0,602.0,543.0,48.0,88.0,82.0
2118,602.0,601.0,543.0,48.0,87.0,81.0
2119,601.0,602.0,543.0,47.0,86.0,81.0
2120,602.0,601.0,543.0,47.0,86.0,80.0
2121,601.0,601.0,543.0,47.0,84.0,79.0
2122,601.0,601.0,543.0,46.0,84.0,78.0
2123,601.0,601.0,543.0,47.0,83.0,78.0
2124,601.0,601.0,543.0,46.0,82.0,77.0
2125,601.0,601.0,543.0,45.0,81.0,75.0
2126,601.0,601.0,543.0,46.0,81.0,75.0
2127,601.0,601.0,543.0,45.0,80.0,74.0
2128,601.0,602.0,542.0,44.0,79.0,74.0
2129,602.0,602.0,543.0,44.0,79.0,73.0
2130,602.0,602.0,542.0,44.0,77.0,72.0
2131,602.0,603.0,543.0,43.0,77.0,72.0
2132,603.0,603.0,543.0,43.0,77.0,71.0
2133,603.0,603.0,543.0,42.0,76.0,70.0
2134,603.0,603.0,542.0,41.0,75.0,69.0
2135,603.0,603.0,542.0,41.0,74.0,69.0
2136,603.0,604.0,543.0,41.0,73.0,68.0
2137,604.0,604.0,543.0,41.0,72.0,68.0
2138,604.0,604.0,542.0,41.0,72.0,65.0
2139,604.0,604.0,541.0,41.0,71.0,66.0
2140,604.0,604.0,542.0,40.0,70.0,66.0
2141,604.0,604.0,543.0,40.0,70.0,64.0
2142,604.0,605.0,542.0,40.0,69.0,64.0
2143,605.0,604.0,542.0,39.0,69.0,63.0
2144,604.0,605.0,542.0,59.0,69.0,63.0
2145,605.0,605.0,542.0,57.0,67.0,63.0
2146,605.0,604.0,542.0,57.0,67.0,62.0
2147,604.0,604.0,542.0,55.0,66.0,62.0
2148,604.0,604.0,542.0,55.0,66.0,61.0
2149,604.0,604.0,542.0,55.0,65.0,60.0
2150,604.0,604.0,543.0,55.0,64.0,60.0
2151,604.0,604.0,543.0,54.0,64.0,59.0
2152,604.0,603.0,543.0,54.0,63.0,58.0
2153,603.0,604.0,543.0,53.0,62.0,57.0
2154,604.0,603.0,543.0,53.0,62.0,57.0
2155,603.0,603.0,542.0,52.0,62.0,57.0
2156,603.0,603.0,543.0,51.0,61.0,57.0
2157,603.0,602.0,543.0,51.0,60.0,56.0
2158,602.0,603.0,543.0,51.0,61.0,55.0
2159,603.0,602.0,543.0,51.0,60.0,55.0
2160,602.0,602.0,544.0,50.0,66.0,66.0
2161,602.0,602.0,543.0,49.0,65.0,64.0
2162,602.0,602.0,543.0,48.0,64.0,64.0
2163,602.0,602.0,543.0,48.0,63.0,64.0
2164,602.0,602.0,543.0,48.0,62.0,63.0
2165,602.0,601.0,543.0,47.0,62.0,62.0
2166,601.0,602.0,543.0,63.0,63.0,62.0
2167,602.0,602.0,543.0,62.0,60.0,61.0
2168,602.0,601.0,542.0,62.0,61.0,60.0
2169,601.0,602.0,542.0,61.0,60.0,60.0
2170,602.0,602.0,543.0,60.0,59.0,117.0
2171,602.0,602.0,542.0,60.0,71.0,140.0
2172,602.0,603.0,542.0,59.0,71.0,138.0
2173,603.0,604.0,543.0,58.0,69.0,138.0
2174,604.0,603.0,542.0,58.0,68.0,134.0
2175,603.0,604.0,542.0,57.0,68.0,133.0
2176,604.0,604.0,542.0,57.0,67.0,131.0
2177,604.0,603.0,542.0,56.0,67.0,130.0
2178,603.0,604.0,541.0,55.0,66.0,129.0
2179,604.0,604.0,542.0,55.0,65.0,126.0
2180,604.0,604.0,542.0,54.0,64.0,125.0
2181,604.0,604.0,542.0,54.0,64.0,124.0
2182,604.0,604.0,543.0,54.0,63.0,123.0
2183,604.0,604.0,542.0,52.0,63.0,121.0
2184,604.0,604.0,542.0,52.0,62.0,119.0
2185,604.0,604.0,542.0,51.0,61.0,119.0
2186,604.0,604.0,542.0,51.0,60.0,117.0
2187,604.0,604.0,542.0,51.0,60.0,116.0
2188,604.0,604.0,543.0,51.0,59.0,115.0
2189,604.0,604.0,543.0,50.0,59.0,114.0
2190,604.0,603.0,543.0,49.0,58.0,112.0
2191,603.0,604.0,543.0,49.0,58.0,111.0
2192,604.0,604.0,543.0,48.0,57.0,110.0
2193,604.0,604.0,543.0,48.0,56.0,109.0
2194,604.0,604.0,543.0,48.0,56.0,108.0
2195,604.0,604.0,543.0,47.0,81.0,107.0
2196,604.0,604.0,543.0,46.0,80.0,105.0
2197,604.0,603.0,544.0,46.0,78.0,105.0
2198,603.0,603.0,542.0,45.0,77.0,104.0
2199,603.0,603.0,543.0,46.0,76.0,103.0
2200,603.0,603.0,543.0,45.0,76.0,101.0
2201,603.0,603.0,543.0,44.0,75.0,100.0
2202,603.0,603.0,543.0,44.0,74.0,100.0
2203,603.0,603.0,542.0,43.0,74.0,99.0
2204,603.0,602.0,543.0,43.0,73.0,98.0
2205,602.0,603.0,543.0,43.0,72.0,97.0
2206,603.0,603.0,543.0,42.0,71.0,95.0
2207,603.0,603.0,542.0,42.0,71.0,95.0
2208,603.0,603.0,543.0,42.0,70.0,93.0
2209,603.0,603.0,542.0,42.0,69.0,93.0
2210,603.0,603.0,542.0,41.0,69.0,92.0
2211,603.0,604.0,542.0,41.0,69.0,91.0
2212,604.0,603.0,542.0,40.0,67.0,90.0
2213,603.0,604.0,542.0,54.0,66.0,89.0
2214,604.0,603.0,542.0,53.0,68.0,88.0
2215,603.0,603.0,543.0,53.0,67.0,88.0
2216,603.0,604.0,543.0,53.0,66.0,87.0
2217,604.0,604.0,542.0,53.0,66.0,86.0
2218,604.0,604.0,543.0,51.0,64.0,85.0
2219,604.0,603.0,542.0,51.0,65.0,84.0
2220,603.0,604.0,541.0,50.0,79.0,87.0
2221,604.0,604.0,542.0,50.0,79.0,86.0
2222,604.0,604.0,541.0,49.0,78.0,85.0
2223,604.0,604.0,541.0,49.0,77.0,84.0
2224,604.0,604.0,541.0,49.0,76.0,83.0
2225,604.0,603.0,542.0,48.0,76.0,82.0
2226,603.0,603.0,542.0,48.0,75.0,82.0
2227,603.0,604.0,542.0,47.0,74.0,80.0
2228,604.0,604.0,542.0,47.0,73.0,80.0
2229,604.0,603.0,542.0,47.0,72.0,79.0
2230,603.0,603.0,542.0,47.0,72.0,78.0
2231,603.0,604.0,542.0,45.0,71.0,77.0
2232,604.0,603.0,542.0,46.0,90.0,121.0
2233,603.0,603.0,541.0,44.0,88.0,119.0
2234,603.0,603.0,542.0,44.0,87.0,118.0
2235,603.0,603.0,542.0,57.0,86.0,116.0
2236,603.0,603.0,542.0,57.0,85.0,115.0
2237,603.0,602.0,542.0,57.0,85.0,114.0
2238,602.0,603.0,543.0,56.0,83.0,112.0
2239,603.0,603.0,543.0,55.0,82.0,111.0
2240,603.0,603.0,543.0,55.0,82.0,109.0
2241,603.0,603.0,543.0,54.0,82.0,109.0
2242,603.0,602.0,544.0,53.0,80.0,108.0
2243,602.0,603.0,544.0,53.0,79.0,106.0
2244,603.0,603.0,543.0,53.0,78.0,105.0
2245,603.0,603.0,543.0,52.0,78.0,104.0
2246,603.0,603.0,544.0,52.0,76.0,102.0
2247,603.0,603.0,544.0,51.0,76.0,102.0
2248,603.0,603.0,543.0,50.0,75.0,101.0
2249,603.0,603.0,543.0,50.0,75.0,100.0
2250,603.0,603.0,543.0,49.0,74.0,99.0
2251,603.0,602.0,543.0,49.0,73.0,97.0
2252,602.0,602.0,543.0,49.0,72.0,97.0
2253,602.0,602.0,543.0,48.0,71.0,96.0
2254,602.0,603.0,544.0,48.0,71.0,95.0
2255,603.0,603.0,544.0,47.0,71.0,94.0
2256,603.0,604.0,544.0,47.0,70.0,93.0
2257,604.0,604.0,544.0,47.0,69.0,92.0
2258,604.0,603.0,544.0,46.0,68.0,91.0
2259,603.0,603.0,544.0,46.0,67.0,90.0
2260,603.0,603.0,545.0,46.0,67.0,89.0
2261,603.0,603.0,544.0,46.0,66.0,89.0
2262,603.0,603.0,544.0,45.0,65.0,88.0
2263,603.0,603.0,544.0,44.0,65.0,86.0
2264,603.0,605.0,544.0,46.0,64.0,86.0
2265,605.0,604.0,543.0,46.0,65.0,85.0
2266,604.0,603.0,543.0,46.0,64.0,85.0
2267,603.0,603.0,543.0,46.0,64.0,84.0
2268,603.0,603.0,543.0,45.0,64.0,83.0
2269,603.0,603.0,543.0,45.0,62.0,82.0
2270,603.0,603.0,543.0,44.0,72.0,81.0
2271,603.0,604.0,542.0,43.0,71.0,81.0
2272,604.0,602.0,543.0,43.0,70.0,80.0
2273,602.0,605.0,542.0,42.0,70.0,79.0
2274,605.0,605.0,544.0,42.0,69.0,78.0
2275,605.0,602.0,542.0,42.0,68.0,78.0
2276,602.0,604.0,542.0,41.0,68.0,76.0
2277,604.0,604.0,542.0,41.0,67.0,76.0
2278,604.0,604.0,543.0,40.0,66.0,75.0
2279,604.0,604.0,541.0,41.0,66.0,75.0
2280,604.0,603.0,542.0,40.0,65.0,74.0
2281,603.0,604.0,542.0,39.0,65.0,73.0
2282,604.0,604.0,542.0,39.0,64.0,72.0
2283,604.0,604.0,541.0,39.0,63.0,71.0
2284,604.0,603.0,542.0,38.0,63.0,72.0
2285,603.0,603.0,542.0,38.0,62.0,71.0
2286,603.0,603.0,542.0,38.0,62.0,69.0
2287,603.0,603.0,542.0,38.0,60.0,70.0
2288,603.0,602.0,543.0,38.0,60.0,69.0
2289,602.0,600.0,542.0,37.0,60.0,68.0
2290,600.0,601.0,542.0,37.0,60.0,68.0
2291,601.0,604.0,544.0,36.0,58.0,67.0
2292,604.0,605.0,545.0,36.0,58.0,66.0
2293,605.0,605.0,545.0,36.0,58.0,66.0
2294,605.0,604.0,544.0,35.0,57.0,65.0
2295,604.0,605.0,545.0,35.0,57.0,64.0
2296,605.0,604.0,544.0,35.0,57.0,63.0
2297,604.0,604.0,544.0,34.0,55.0,63.0
2298,604.0,604.0,544.0,35.0,55.0,62.0
2299,604.0,603.0,544.0,34.0,54.0,61.0
2300,603.0,603.0,544.0,34.0,54.0,61.0
2301,603.0,603.0,544.0,107.0,78.0,115.0
2302,603.0,603.0,543.0,105.0,77.0,114.0
2303,603.0,603.0,544.0,103.0,75.0,113.0
2304,603.0,602.0,543.0,102.0,75.0,111.0
2305,602.0,602.0,544.0,101.0,74.0,109.0
2306,602.0,602.0,544.0,100.0,74.0,108.0
2307,602.0,602.0,543.0,99.0,72.0,108.0
2308,602.0,603.0,544.0,98.0,72.0,106.0
2309,603.0,603.0,543.0,97.0,71.0,105.0
2310,603.0,603.0,544.0,96.0,71.0,104.0
2311,603.0,603.0,544.0,95.0,70.0,102.0
2312,603.0,603.0,543.0,94.0,68.0,101.0
2313,603.0,603.0,543.0,94.0,67.0,100.0
2314,603.0,603.0,543.0,91.0,67.0,100.0
2315,603.0,603.0,543.0,91.0,67.0,99.0
2316,603.0,602.0,543.0,90.0,66.0,98.0
2317,602.0,603.0,543.0,89.0,65.0,96.0
2318,603.0,603.0,543.0,88.0,65.0,95.0
2319,603.0,602.0,543.0,87.0,64.0,95.0
2320,602.0,601.0,544.0,86.0,63.0,93.0
2321,601.0,601.0,544.0,86.0,63.0,92.0
2322,601.0,601.0,544.0,85.0,63.0,91.0
2323,601.0,601.0,544.0,84.0,62.0,91.0
2324,601.0,601.0,543.0,83.0,61.0,90.0
2325,601.0,602.0,543.0,82.0,61.0,89.0
2326,602.0,603.0,544.0,82.0,60.0,88.0
2327,603.0,603.0,544.0,81.0,59.0,87.0
2328,603.0,603.0,544.0,81.0,59.0,86.0
2329,603.0,603.0,543.0,80.0,58.0,85.0
2330,603.0,604.0,543.0,79.0,58.0,85.0
2331,604.0,604.0,544.0,78.0,57.0,84.0
2332,604.0,603.0,544.0,77.0,57.0,83.0
2333,603.0,603.0,543.0,76.0,56.0,82.0
2334,603.0,603.0,543.0,76.0,56.0,81.0
2335,603.0,603.0,543.0,75.0,55.0,81.0
2336,603.0,603.0,543.0,75.0,55.0,80.0
2337,603.0,603.0,544.0,74.0,54.0,78.0
2338,603.0,603.0,543.0,73.0,73.0,81.0
2339,603.0,602.0,543.0,72.0,72.0,80.0
2340,602.0,603.0,543.0,71.0,71.0,79.0
2341,603.0,603.0,543.0,71.0,70.0,78.0
2342,603.0,602.0,543.0,70.0,70.0,78.0
2343,602.0,604.0,544.0,70.0,69.0,76.0
2344,604.0,602.0,543.0,69.0,68.0,76.0
2345,602.0,602.0,542.0,69.0,68.0,76.0
2346,602.0,603.0,543.0,68.0,66.0,75.0
2347,603.0,603.0,543.0,67.0,66.0,74.0
2348,603.0,603.0,542.0,67.0,65.0,73.0
2349,603.0,603.0,543.0,66.0,64.0,73.0
2350,603.0,604.0,543.0,66.0,64.0,72.0
2351,604.0,602.0,543.0,66.0,64.0,71.0
2352,602.0,603.0,544.0,67.0,64.0,71.0
2353,603.0,602.0,544.0,65.0,62.0,72.0
2354,602.0,606.0,544.0,65.0,62.0,69.0
2355,606.0,603.0,544.0,64.0,61.0,68.0
2356,603.0,602.0,544.0,64.0,61.0,68.0
2357,602.0,604.0,544.0,63.0,60.0,68.0
2358,604.0,603.0,543.0,63.0,60.0,66.0
2359,603.0,604.0,544.0,62.0,59.0,66.0
2360,604.0,603.0,543.0,62.0,59.0,66.0
2361,603.0,604.0,543.0,61.0,58.0,64.0
2362,604.0,605.0,544.0,61.0,58.0,64.0
2363,605.0,605.0,544.0,60.0,58.0,64.0
2364,605.0,604.0,544.0,59.0,56.0,63.0
2365,604.0,604.0,544.0,58.0,55.0,63.0
2366,604.0,604.0,544.0,58.0,55.0,62.0
2367,604.0,604.0,544.0,57.0,54.0,61.0
2368,604.0,604.0,544.0,57.0,54.0,60.0
2369,604.0,603.0,544.0,57.0,53.0,61.0
2370,603.0,603.0,544.0,56.0,54.0,59.0
2371,603.0,603.0,544.0,55.0,53.0,59.0
2372,603.0,603.0,544.0,56.0,53.0,59.0
2373,603.0,603.0,543.0,55.0,52.0,58.0
2374,603.0,603.0,543.0,55.0,65.0,126.0
2375,603.0,602.0,542.0,54.0,64.0,124.0
2376,602.0,601.0,543.0,53.0,63.0,122.0
2377,601.0,601.0,542.0,53.0,62.0,120.0
2378,601.0,601.0,543.0,53.0,62.0,120.0
2379,601.0,602.0,544.0,52.0,61.0,118.0
2380,602.0,602.0,544.0,51.0,60.0,116.0
2381,602.0,602.0,544.0,51.0,60.0,115.0
2382,602.0,602.0,544.0,51.0,59.0,114.0
2383,602.0,601.0,544.0,50.0,59.0,113.0
2384,601.0,602.0,545.0,49.0,58.0,111.0
2385,602.0,603.0,544.0,49.0,57.0,110.0
2386,603.0,603.0,544.0,49.0,57.0,109.0
2387,603.0,603.0,544.0,49.0,55.0,109.0
2388,603.0,602.0,544.0,49.0,56.0,106.0
2389,602.0,603.0,544.0,48.0,56.0,107.0
2390,603.0,603.0,544.0,48.0,54.0,105.0
2391,603.0,603.0,544.0,47.0,54.0,104.0
2392,603.0,603.0,545.0,47.0,157.0,184.0
2393,603.0,604.0,544.0,46.0,154.0,181.0
2394,604.0,604.0,543.0,46.0,151.0,178.0
2395,604.0,603.0,544.0,45.0,150.0,176.0
2396,603.0,603.0,543.0,45.0,148.0,173.0
2397,603.0,602.0,543.0,45.0,146.0,172.0
2398,602.0,603.0,542.0,44.0,144.0,170.0
2399,603.0,602.0,543.0,44.0,142.0,168.0
2400,602.0,602.0,543.0,44.0,142.0,166.0
2401,602.0,603.0,543.0,43.0,140.0,164.0
2402,603.0,603.0,543.0,43.0,138.0,162.0
2403,603.0,604.0,543.0,43.0,137.0,160.0
2404,604.0,604.0,544.0,42.0,135.0,159.0
2405,604.0,603.0,543.0,42.0,133.0,156.0
2406,603.0,603.0,543.0,41.0,132.0,155.0
2407,603.0,602.0,544.0,41.0,131.0,153.0
2408,602.0,601.0,543.0,41.0,129.0,151.0
2409,601.0,601.0,543.0,40.0,128.0,150.0
2410,601.0,601.0,543.0,119.0,126.0,148.0
2411,601.0,602.0,543.0,117.0,126.0,147.0
2412,602.0,602.0,544.0,115.0,124.0,145.0
2413,602.0,602.0,544.0,114.0,123.0,143.0
2414,602.0,603.0,544.0,112.0,122.0,142.0
2415,603.0,604.0,544.0,112.0,120.0,140.0
2416,604.0,603.0,544.0,110.0,119.0,138.0
2417,603.0,604.0,545.0,109.0,118.0,137.0
2418,604.0,603.0,543.0,108.0,117.0,135.0
2419,603.0,602.0,544.0,106.0,115.0,135.0
2420,602.0,604.0,545.0,105.0,114.0,133.0
2421,604.0,605.0,544.0,105.0,113.0,132.0
2422,605.0,604.0,543.0,103.0,112.0,130.0
2423,604.0,603.0,544.0,101.0,110.0,129.0
2424,603.0,604.0,544.0,101.0,110.0,127.0
2425,604.0,603.0,543.0,100.0,108.0,125.0
2426,603.0,603.0,543.0,99.0,107.0,126.0
2427,603.0,603.0,544.0,98.0,106.0,123.0
2428,603.0,602.0,543.0,97.0,105.0,122.0
2429,602.0,602.0,544.0,96.0,104.0,120.0
2430,602.0,603.0,544.0,95.0,103.0,119.0
2431,603.0,603.0,544.0,94.0,102.0,116.0
2432,603.0,602.0,544.0,93.0,101.0,117.0
2433,602.0,603.0,544.0,92.0,100.0,116.0
2434,603.0,602.0,544.0,91.0,99.0,131.0
2435,602.0,603.0,545.0,90.0,185.0,210.0
2436,603.0,603.0,544.0,89.0,183.0,207.0
2437,603.0,603.0,544.0,88.0,181.0,204.0
2438,603.0,603.0,544.0,87.0,178.0,201.0
2439,603.0,603.0,544.0,88.0,177.0,199.0
2440,603.0,604.0,544.0,86.0,174.0,196.0
2441,604.0,602.0,544.0,85.0,172.0,194.0
2442,602.0,602.0,544.0,84.0,170.0,191.0
2443,602.0,602.0,544.0,84.0,169.0,190.0
2444,602.0,602.0,544.0,82.0,166.0,187.0
2445,602.0,602.0,544.0,84.0,165.0,185.0
2446,602.0,602.0,543.0,104.0,162.0,183.0
2447,602.0,602.0,544.0,103.0,160.0,180.0
2448,602.0,602.0,543.0,102.0,159.0,178.0
2449,602.0,603.0,543.0,102.0,157.0,177.0
2450,603.0,603.0,543.0,100.0,156.0,174.0
2451,603.0,603.0,544.0,99.0,154.0,173.0
2452,603.0,603.0,544.0,98.0,153.0,171.0
2453,603.0,604.0,543.0,97.0,151.0,169.0
2454,604.0,603.0,543.0,96.0,150.0,168.0
2455,603.0,603.0,543.0,94.0,148.0,165.0
2456,603.0,603.0,543.0,94.0,146.0,164.0
2457,603.0,602.0,542.0,93.0,145.0,161.0
2458,602.0,603.0,542.0,92.0,143.0,160.0
2459,603.0,603.0,543.0,91.0,142.0,159.0
2460,603.0,603.0,543.0,90.0,140.0,157.0
2461,603.0,602.0,543.0,89.0,139.0,155.0
2462,602.0,603.0,543.0,88.0,137.0,153.0
2463,603.0,602.0,543.0,88.0,136.0,151.0
2464,602.0,601.0,542.0,87.0,135.0,150.0
2465,601.0,601.0,542.0,86.0,133.0,148.0
2466,601.0,603.0,543.0,85.0,132.0,147.0
2467,603.0,603.0,544.0,84.0,131.0,146.0
2468,603.0,603.0,544.0,84.0,129.0,144.0
2469,603.0,603.0,545.0,83.0,128.0,142.0
2470,603.0,602.0,545.0,82.0,127.0,142.0
2471,602.0,601.0,545.0,82.0,126.0,139.0
2472,601.0,600.0,544.0,80.0,125.0,138.0
2473,600.0,600.0,543.0,80.0,123.0,137.0
2474,600.0,601.0,544.0,79.0,122.0,135.0
2475,601.0,601.0,543.0,78.0,120.0,133.0
2476,601.0,600.0,543.0,77.0,119.0,133.0
2477,600.0,598.0,543.0,76.0,118.0,132.0
2478,598.0,596.0,542.0,75.0,117.0,130.0
2479,596.0,597.0,542.0,74.0,115.0,129.0
2480,597.0,601.0,544.0,74.0,114.0,127.0
2481,601.0,601.0,544.0,73.0,113.0,126.0
2482,601.0,603.0,544.0,72.0,113.0,125.0
2483,603.0,603.0,545.0,72.0,111.0,123.0
2484,603.0,606.0,546.0,71.0,110.0,122.0
2485,606.0,603.0,543.0,71.0,109.0,121.0
2486,603.0,605.0,545.0,70.0,109.0,119.0
2487,605.0,608.0,546.0,69.0,107.0,118.0
2488,608.0,606.0,543.0,69.0,107.0,117.0
2489,606.0,604.0,542.0,68.0,105.0,116.0
2490,604.0,605.0,542.0,68.0,104.0,114.0
2491,605.0,603.0,542.0,68.0,104.0,114.0
2492,603.0,602.0,541.0,67.0,102.0,113.0
2493,602.0,602.0,541.0,67.0,102.0,111.0
2494,602.0,602.0,542.0,66.0,100.0,111.0
2495,602.0,603.0,542.0,65.0,100.0,109.0
2496,603.0,604.0,542.0,65.0,98.0,108.0
2497,604.0,604.0,542.0,64.0,97.0,108.0
2498,604.0,604.0,543.0,64.0,97.0,106.0
2499,604.0,605.0,543.0,63.0,96.0,105.0
2500,605.0,605.0,543.0,62.0,95.0,104.0
2501,605.0,605.0,544.0,62.0,93.0,103.0
2502,605.0,606.0,544.0,61.0,93.0,102.0
2503,606.0,605.0,544.0,61.0,92.0,101.0
2504,605.0,605.0,544.0,60.0,92.0,100.0
2505,605.0,605.0,544.0,59.0,91.0,99.0
2506,605.0,606.0,544.0,59.0,90.0,98.0
2507,606.0,605.0,543.0,58.0,89.0,98.0
2508,605.0,605.0,544.0,58.0,88.0,96.0
2509,605.0,605.0,544.0,58.0,87.0,96.0
2510,605.0,605.0,544.0,57.0,87.0,94.0
2511,605.0,604.0,544.0,56.0,86.0,94.0
2512,604.0,603.0,544.0,55.0,85.0,93.0
2513,603.0,602.0,544.0,55.0,84.0,92.0
2514,602.0,602.0,544.0,55.0,83.0,91.0
2515,602.0,602.0,544.0,55.0,83.0,90.0
2516,602.0,602.0,544.0,54.0,82.0,91.0
2517,602.0,602.0,545.0,53.0,82.0,89.0
2518,602.0,602.0,545.0,54.0,81.0,88.0
2519,602.0,602.0,544.0,53.0,80.0,87.0
2520,602.0,602.0,544.0,55.0,80.0,86.0
2521,602.0,601.0,544.0,54.0,78.0,86.0
2522,601.0,602.0,544.0,54.0,78.0,85.0
2523,602.0,601.0,544.0,53.0,83.0,88.0
2524,601.0,601.0,543.0,52.0,82.0,87.0
2525,601.0,601.0,543.0,53.0,81.0,86.0
2526,601.0,601.0,543.0,52.0,80.0,84.0
2527,601.0,601.0,543.0,51.0,79.0,84.0
2528,601.0,602.0,544.0,50.0,79.0,83.0
2529,602.0,602.0,545.0,50.0,78.0,83.0
2530,602.0,602.0,544.0,50.0,77.0,82.0
2531,602.0,603.0,544.0,49.0,76.0,82.0
2532,603.0,602.0,544.0,49.0,76.0,80.0
2533,602.0,603.0,543.0,48.0,74.0,79.0
2534,603.0,603.0,543.0,48.0,74.0,79.0
2535,603.0,603.0,543.0,48.0,74.0,78.0
2536,603.0,603.0,543.0,47.0,74.0,77.0
2537,603.0,603.0,543.0,47.0,73.0,77.0
2538,603.0,603.0,543.0,47.0,72.0,77.0
2539,603.0,603.0,543.0,46.0,71.0,75.0
2540,603.0,603.0,543.0,46.0,71.0,75.0
2541,603.0,603.0,543.0,45.0,70.0,74.0
2542,603.0,604.0,544.0,45.0,70.0,74.0
2543,604.0,603.0,543.0,45.0,69.0,73.0
2544,603.0,604.0,543.0,44.0,69.0,72.0
2545,604.0,604.0,543.0,44.0,67.0,71.0
2546,604.0,603.0,543.0,43.0,67.0,71.0
2547,603.0,604.0,543.0,43.0,67.0,70.0
2548,604.0,604.0,543.0,44.0,65.0,69.0
2549,604.0,603.0,543.0,44.0,65.0,68.0
2550,603.0,603.0,543.0,44.0,65.0,68.0
2551,603.0,604.0,543.0,43.0,64.0,68.0
2552,604.0,603.0,543.0,43.0,63.0,67.0
2553,603.0,603.0,543.0,43.0,63.0,67.0
2554,603.0,603.0,543.0,42.0,63.0,67.0
2555,603.0,603.0,543.0,42.0,62.0,66.0
2556,603.0,603.0,543.0,42.0,62.0,66.0
2557,603.0,602.0,543.0,41.0,60.0,65.0
2558,602.0,603.0,544.0,41.0,60.0,64.0
2559,603.0,603.0,544.0,40.0,60.0,64.0
2560,603.0,602.0,544.0,39.0,60.0,64.0
2561,602.0,602.0,544.0,39.0,59.0,63.0
2562,602.0,601.0,545.0,39.0,59.0,62.0
2563,601.0,602.0,545.0,39.0,58.0,62.0
2564,602.0,601.0,545.0,39.0,57.0,62.0
2565,601.0,601.0,545.0,38.0,57.0,61.0
2566,601.0,601.0,545.0,38.0,56.0,60.0
2567,601.0,602.0,544.0,38.0,56.0,59.0
2568,602.0,602.0,544.0,37.0,55.0,59.0
2569,602.0,603.0,543.0,37.0,55.0,58.0
2570,603.0,603.0,543.0,37.0,54.0,58.0
2571,603.0,603.0,544.0,36.0,54.0,58.0
2572,603.0,603.0,544.0,37.0,54.0,57.0
2573,603.0,603.0,544.0,36.0,53.0,56.0
2574,603.0,603.0,543.0,35.0,52.0,56.0
2575,603.0,603.0,543.0,85.0,52.0,55.0
2576,603.0,603.0,543.0,84.0,52.0,55.0
2577,603.0,604.0,544.0,83.0,51.0,55.0
2578,604.0,604.0,543.0,82.0,51.0,54.0
2579,604.0,605.0,544.0,81.0,51.0,54.0
2580,605.0,605.0,544.0,80.0,50.0,53.0
2581,605.0,606.0,544.0,79.0,49.0,52.0
2582,606.0,606.0,544.0,79.0,49.0,52.0
2583,606.0,605.0,544.0,77.0,49.0,51.0
2584,605.0,605.0,544.0,77.0,48.0,51.0
2585,605.0,605.0,544.0,76.0,48.0,51.0
2586,605.0,604.0,544.0,75.0,48.0,51.0
2587,604.0,604.0,543.0,74.0,47.0,50.0
2588,604.0,603.0,543.0,74.0,47.0,50.0
2589,603.0,603.0,544.0,73.0,46.0,49.0
2590,603.0,603.0,544.0,72.0,46.0,48.0
2591,603.0,603.0,543.0,75.0,46.0,49.0
2592,603.0,603.0,544.0,71.0,46.0,48.0
2593,603.0,602.0,544.0,70.0,45.0,48.0
2594,602.0,602.0,544.0,71.0,44.0,47.0
2595,602.0,601.0,544.0,69.0,45.0,46.0
2596,601.0,601.0,545.0,69.0,43.0,46.0
2597,601.0,602.0,545.0,68.0,44.0,53.0
2598,602.0,602.0,545.0,68.0,43.0,53.0
2599,602.0,602.0,545.0,66.0,43.0,53.0
2600,602.0,602.0,545.0,66.0,43.0,52.0
2601,602.0,602.0,543.0,65.0,42.0,52.0
2602,602.0,601.0,544.0,65.0,42.0,50.0
2603,601.0,601.0,543.0,65.0,42.0,51.0
2604,601.0,601.0,543.0,63.0,41.0,50.0
2605,601.0,601.0,543.0,63.0,41.0,49.0
2606,601.0,601.0,544.0,62.0,40.0,49.0
2607,601.0,602.0,544.0,61.0,40.0,49.0
2608,602.0,602.0,544.0,63.0,41.0,49.0
2609,602.0,602.0,544.0,62.0,39.0,47.0
2610,602.0,603.0,543.0,62.0,39.0,47.0
2611,603.0,602.0,543.0,60.0,39.0,47.0
2612,602.0,602.0,543.0,60.0,39.0,46.0
2613,602.0,602.0,542.0,59.0,38.0,47.0
2614,602.0,603.0,542.0,59.0,38.0,45.0
2615,603.0,602.0,542.0,58.0,38.0,45.0
2616,602.0,602.0,542.0,57.0,38.0,45.0
2617,602.0,603.0,543.0,58.0,38.0,44.0
2618,603.0,603.0,543.0,57.0,38.0,44.0
2619,603.0,603.0,543.0,56.0,36.0,43.0
2620,603.0,603.0,543.0,56.0,36.0,43.0
2621,603.0,603.0,543.0,55.0,36.0,43.0
2622,603.0,603.0,543.0,55.0,36.0,42.0
2623,603.0,603.0,543.0,54.0,35.0,42.0
2624,603.0,603.0,544.0,54.0,35.0,41.0
2625,603.0,602.0,544.0,53.0,35.0,41.0
2626,602.0,603.0,544.0,53.0,35.0,41.0
2627,603.0,603.0,544.0,52.0,34.0,41.0
2628,603.0,603.0,544.0,52.0,38.0,81.0
2629,603.0,602.0,544.0,51.0,56.0,79.0
2630,602.0,602.0,544.0,51.0,55.0,78.0
2631,602.0,602.0,544.0,50.0,54.0,76.0
2632,602.0,602.0,544.0,51.0,54.0,75.0
2633,602.0,602.0,544.0,51.0,53.0,75.0
2634,602.0,603.0,545.0,49.0,53.0,74.0
2635,603.0,602.0,545.0,49.0,52.0,73.0
2636,602.0,603.0,545.0,48.0,52.0,73.0
2637,603.0,603.0,545.0,47.0,51.0,73.0
2638,603.0,604.0,544.0,48.0,51.0,73.0
2639,604.0,604.0,545.0,47.0,50.0,72.0
2640,604.0,603.0,545.0,47.0,50.0,71.0
2641,603.0,603.0,545.0,47.0,50.0,71.0
2642,603.0,603.0,545.0,46.0,49.0,70.0
2643,603.0,602.0,543.0,46.0,48.0,69.0
2644,602.0,602.0,544.0,45.0,48.0,68.0
2645,602.0,604.0,544.0,45.0,48.0,69.0
2646,604.0,603.0,544.0,44.0,47.0,67.0
2647,603.0,603.0,544.0,44.0,46.0,67.0
2648,603.0,603.0,544.0,43.0,46.0,66.0
2649,603.0,603.0,543.0,44.0,47.0,66.0
2650,603.0,603.0,543.0,43.0,59.0,66.0
2651,603.0,603.0,543.0,42.0,58.0,65.0
2652,603.0,603.0,544.0,42.0,58.0,65.0
2653,603.0,602.0,544.0,81.0,57.0,64.0
2654,602.0,602.0,544.0,80.0,57.0,63.0
2655,602.0,602.0,544.0,79.0,56.0,63.0
2656,602.0,603.0,544.0,77.0,56.0,61.0
2657,603.0,603.0,544.0,77.0,55.0,62.0
2658,603.0,602.0,544.0,76.0,54.0,61.0
2659,602.0,603.0,544.0,76.0,54.0,61.0
2660,603.0,602.0,544.0,75.0,53.0,60.0
2661,602.0,602.0,544.0,75.0,54.0,59.0
2662,602.0,602.0,543.0,74.0,52.0,59.0
2663,602.0,602.0,544.0,73.0,52.0,58.0
2664,602.0,602.0,543.0,71.0,51.0,57.0
2665,602.0,602.0,543.0,71.0,51.0,57.0
2666,602.0,601.0,543.0,70.0,50.0,56.0
2667,601.0,601.0,544.0,70.0,50.0,56.0
2668,601.0,602.0,544.0,69.0,49.0,55.0
2669,602.0,602.0,544.0,68.0,49.0,54.0
2670,602.0,603.0,544.0,67.0,48.0,54.0
2671,603.0,602.0,543.0,67.0,48.0,53.0
2672,602.0,603.0,543.0,67.0,48.0,53.0
2673,603.0,602.0,544.0,66.0,48.0,53.0
2674,602.0,602.0,544.0,65.0,47.0,53.0
2675,602.0,602.0,543.0,64.0,46.0,52.0
2676,602.0,603.0,544.0,64.0,46.0,52.0
2677,603.0,603.0,544.0,63.0,45.0,60.0
2678,603.0,602.0,543.0,63.0,45.0,60.0
2679,602.0,603.0,543.0,62.0,44.0,60.0
2680,603.0,603.0,544.0,62.0,44.0,59.0
2681,603.0,602.0,544.0,61.0,44.0,58.0
2682,602.0,603.0,544.0,60.0,44.0,57.0
2683,603.0,602.0,545.0,60.0,43.0,57.0
2684,602.0,602.0,544.0,60.0,42.0,56.0
2685,602.0,602.0,544.0,59.0,42.0,56.0
2686,602.0,601.0,545.0,58.0,67.0,82.0
2687,601.0,602.0,544.0,57.0,66.0,81.0
2688,602.0,602.0,544.0,57.0,65.0,80.0
2689,602.0,602.0,545.0,57.0,64.0,91.0
2690,602.0,602.0,544.0,56.0,64.0,90.0
2691,602.0,602.0,544.0,56.0,63.0,88.0
2692,602.0,602.0,545.0,55.0,62.0,89.0
2693,602.0,602.0,544.0,54.0,62.0,86.0
2694,602.0,602.0,544.0,54.0,61.0,86.0
2695,602.0,602.0,544.0,53.0,60.0,84.0
2696,602.0,602.0,544.0,53.0,59.0,83.0
2697,602.0,602.0,543.0,52.0,58.0,82.0
2698,602.0,603.0,543.0,52.0,59.0,82.0
2699,603.0,603.0,544.0,51.0,57.0,81.0
2700,603.0,603.0,543.0,51.0,57.0,79.0
2701,603.0,603.0,543.0,51.0,57.0,79.0
2702,603.0,603.0,543.0,51.0,56.0,78.0
2703,603.0,603.0,543.0,50.0,55.0,79.0
2704,603.0,601.0,543.0,50.0,55.0,77.0
2705,601.0,603.0,544.0,49.0,55.0,76.0
2706,603.0,603.0,544.0,49.0,54.0,76.0
2707,603.0,603.0,544.0,48.0,54.0,74.0
2708,603.0,603.0,543.0,48.0,53.0,73.0
2709,603.0,603.0,544.0,127.0,77.0,97.0
2710,603.0,602.0,543.0,125.0,130.0,95.0
2711,602.0,603.0,544.0,123.0,128.0,94.0
2712,603.0,602.0,543.0,121.0,127.0,93.0
2713,602.0,603.0,543.0,120.0,126.0,92.0
2714,603.0,603.0,544.0,119.0,123.0,91.0
2715,603.0,602.0,543.0,117.0,122.0,90.0
2716,602.0,603.0,544.0,115.0,120.0,88.0
2717,603.0,603.0,545.0,115.0,119.0,87.0
2718,603.0,604.0,545.0,114.0,119.0,87.0
2719,604.0,604.0,545.0,112.0,117.0,86.0
2720,604.0,604.0,545.0,112.0,116.0,85.0
2721,604.0,605.0,545.0,110.0,114.0,83.0
2722,605.0,605.0,545.0,108.0,112.0,84.0
2723,605.0,604.0,544.0,108.0,112.0,104.0
2724,604.0,604.0,544.0,107.0,110.0,103.0
2725,604.0,604.0,544.0,105.0,110.0,101.0
2726,604.0,604.0,544.0,104.0,109.0,99.0
2727,604.0,604.0,544.0,103.0,107.0,99.0
2728,604.0,604.0,543.0,102.0,106.0,98.0
2729,604.0,603.0,543.0,101.0,104.0,97.0
2730,603.0,603.0,543.0,100.0,105.0,104.0
2731,603.0,603.0,543.0,99.0,103.0,103.0
2732,603.0,604.0,542.0,98.0,102.0,102.0
2733,604.0,603.0,543.0,97.0,100.0,101.0
2734,603.0,604.0,544.0,95.0,100.0,99.0
2735,604.0,602.0,544.0,95.0,99.0,99.0
2736,602.0,603.0,544.0,94.0,98.0,98.0
2737,603.0,603.0,545.0,93.0,97.0,96.0
2738,603.0,603.0,544.0,93.0,97.0,95.0
2739,603.0,602.0,544.0,92.0,95.0,94.0
2740,602.0,602.0,544.0,91.0,94.0,92.0
2741,602.0,601.0,543.0,90.0,93.0,92.0
2742,601.0,601.0,544.0,89.0,93.0,91.0
2743,601.0,601.0,544.0,88.0,90.0,91.0
2744,601.0,600.0,544.0,87.0,90.0,89.0
2745,600.0,600.0,544.0,87.0,90.0,89.0
2746,600.0,601.0,544.0,86.0,89.0,88.0
2747,601.0,601.0,544.0,85.0,88.0,87.0
2748,601.0,601.0,543.0,85.0,88.0,87.0
2749,601.0,602.0,544.0,84.0,86.0,85.0
2750,602.0,602.0,543.0,83.0,86.0,86.0
2751,602.0,602.0,543.0,82.0,94.0,186.0
2752,602.0,603.0,543.0,81.0,92.0,184.0
2753,603.0,603.0,543.0,81.0,91.0,180.0
2754,603.0,603.0,543.0,79.0,91.0,178.0
2755,603.0,604.0,543.0,80.0,91.0,176.0
2756,604.0,604.0,543.0,78.0,89.0,174.0
2757,604.0,604.0,543.0,78.0,87.0,172.0
2758,604.0,604.0,543.0,77.0,87.0,170.0
2759,604.0,603.0,543.0,76.0,86.0,167.0
2760,603.0,603.0,542.0,75.0,86.0,166.0
2761,603.0,604.0,542.0,75.0,84.0,164.0
2762,604.0,603.0,542.0,75.0,83.0,163.0
2763,603.0,603.0,542.0,73.0,83.0,161.0
2764,603.0,603.0,542.0,72.0,81.0,159.0
2765,603.0,603.0,542.0,72.0,81.0,157.0
2766,603.0,604.0,542.0,72.0,171.0,260.0
2767,604.0,602.0,542.0,71.0,168.0,256.0
2768,602.0,603.0,543.0,70.0,166.0,252.0
2769,603.0,603.0,543.0,70.0,163.0,248.0
2770,603.0,604.0,543.0,69.0,162.0,245.0
2771,604.0,603.0,543.0,69.0,159.0,242.0
2772,603.0,603.0,543.0,67.0,158.0,239.0
2773,603.0,603.0,544.0,67.0,157.0,236.0
2774,603.0,603.0,543.0,66.0,154.0,233.0
2775,603.0,602.0,544.0,65.0,153.0,231.0
2776,602.0,601.0,544.0,65.0,151.0,228.0
2777,601.0,602.0,544.0,64.0,150.0,224.0
2778,602.0,602.0,544.0,64.0,148.0,222.0
2779,602.0,601.0,544.0,63.0,147.0,219.0
2780,601.0,601.0,545.0,63.0,145.0,217.0
2781,601.0,602.0,545.0,62.0,143.0,214.0
2782,602.0,602.0,545.0,61.0,142.0,212.0
2783,602.0,601.0,545.0,61.0,140.0,209.0
2784,601.0,601.0,545.0,60.0,139.0,207.0
2785,601.0,602.0,545.0,60.0,138.0,204.0
2786,602.0,603.0,545.0,59.0,136.0,202.0
2787,603.0,603.0,544.0,58.0,135.0,200.0
2788,603.0,603.0,545.0,59.0,133.0,197.0
2789,603.0,603.0,544.0,58.0,132.0,196.0
2790,603.0,602.0,545.0,57.0,130.0,194.0
2791,602.0,603.0,544.0,57.0,129.0,192.0
2792,603.0,603.0,544.0,57.0,128.0,190.0
2793,603.0,603.0,544.0,55.0,126.0,187.0
2794,603.0,603.0,544.0,55.0,125.0,185.0
2795,603.0,603.0,544.0,54.0,124.0,183.0
2796,603.0,603.0,543.0,55.0,122.0,181.0
2797,603.0,602.0,543.0,53.0,121.0,179.0
2798,602.0,603.0,543.0,53.0,120.0,177.0
2799,603.0,603.0,543.0,54.0,118.0,176.0
2800,603.0,603.0,543.0,52.0,117.0,173.0
2801,603.0,605.0,543.0,52.0,117.0,171.0
2802,605.0,603.0,542.0,51.0,115.0,170.0
2803,603.0,604.0,541.0,50.0,114.0,168.0
2804,604.0,605.0,542.0,51.0,113.0,166.0
2805,605.0,605.0,543.0,50.0,112.0,165.0
2806,605.0,604.0,542.0,49.0,111.0,163.0
2807,604.0,604.0,542.0,49.0,110.0,162.0
2808,604.0,604.0,543.0,50.0,108.0,159.0
2809,604.0,604.0,543.0,48.0,108.0,158.0
2810,604.0,605.0,543.0,48.0,107.0,156.0
2811,605.0,605.0,543.0,48.0,105.0,154.0
2812,605.0,604.0,543.0,47.0,104.0,153.0
2813,604.0,603.0,543.0,46.0,103.0,151.0
2814,603.0,603.0,542.0,46.0,102.0,150.0
2815,603.0,602.0,542.0,46.0,101.0,149.0
2816,602.0,602.0,542.0,45.0,101.0,147.0
2817,602.0,602.0,542.0,45.0,100.0,146.0
2818,602.0,601.0,542.0,45.0,99.0,144.0
2819,601.0,601.0,541.0,44.0,97.0,142.0
2820,601.0,601.0,542.0,44.0,97.0,141.0
2821,601.0,601.0,543.0,43.0,107.0,140.0
2822,601.0,601.0,542.0,43.0,105.0,139.0
2823,601.0,602.0,542.0,43.0,105.0,136.0
2824,602.0,601.0,542.0,42.0,103.0,135.0
2825,601.0,602.0,542.0,42.0,102.0,134.0
2826,602.0,602.0,542.0,40.0,101.0,133.0
2827,602.0,602.0,542.0,41.0,100.0,132.0
2828,602.0,602.0,542.0,41.0,99.0,130.0
2829,602.0,602.0,542.0,41.0,97.0,129.0
2830,602.0,602.0,542.0,40.0,97.0,128.0
2831,602.0,602.0,542.0,39.0,96.0,127.0
2832,602.0,602.0,543.0,39.0,95.0,125.0
2833,602.0,603.0,543.0,39.0,94.0,124.0
2834,603.0,603.0,542.0,39.0,93.0,123.0
2835,603.0,602.0,542.0,38.0,92.0,122.0
2836,602.0,603.0,543.0,38.0,92.0,120.0
2837,603.0,603.0,542.0,38.0,91.0,119.0
2838,603.0,603.0,542.0,37.0,89.0,118.0
2839,603.0,603.0,543.0,37.0,89.0,117.0
2840,603.0,604.0,543.0,37.0,89.0,116.0
2841,604.0,603.0,543.0,36.0,88.0,115.0
2842,603.0,603.0,543.0,39.0,86.0,113.0
2843,603.0,604.0,543.0,39.0,86.0,113.0
2844,604.0,604.0,543.0,38.0,84.0,111.0
2845,604.0,603.0,543.0,38.0,84.0,110.0
2846,603.0,604.0,543.0,38.0,83.0,110.0
2847,604.0,604.0,543.0,37.0,83.0,108.0
2848,604.0,604.0,543.0,37.0,84.0,107.0
2849,604.0,604.0,544.0,36.0,80.0,107.0
2850,604.0,604.0,543.0,37.0,80.0,105.0
2851,604.0,604.0,543.0,36.0,79.0,105.0
2852,604.0,604.0,543.0,36.0,78.0,103.0
2853,604.0,604.0,543.0,36.0,78.0,103.0
2854,604.0,604.0,543.0,35.0,78.0,102.0
2855,604.0,604.0,543.0,35.0,77.0,101.0
2856,604.0,604.0,543.0,35.0,75.0,100.0
2857,604.0,604.0,543.0,33.0,76.0,100.0
2858,604.0,604.0,542.0,34.0,74.0,99.0
2859,604.0,604.0,542.0,34.0,74.0,99.0
2860,604.0,605.0,542.0,33.0,74.0,98.0
2861,605.0,604.0,543.0,33.0,73.0,97.0
2862,604.0,604.0,542.0,33.0,72.0,96.0
2863,604.0,604.0,543.0,32.0,72.0,94.0
2864,604.0,604.0,543.0,33.0,71.0,94.0
2865,604.0,604.0,543.0,33.0,71.0,93.0
2866,604.0,605.0,543.0,32.0,71.0,92.0
2867,605.0,604.0,543.0,32.0,69.0,92.0
2868,604.0,604.0,543.0,32.0,68.0,91.0
2869,604.0,604.0,542.0,30.0,68.0,90.0
2870,604.0,603.0,542.0,31.0,70.0,89.0
2871,603.0,603.0,543.0,30.0,66.0,88.0
2872,603.0,603.0,543.0,30.0,67.0,87.0
2873,603.0,601.0,542.0,30.0,66.0,86.0
2874,601.0,602.0,544.0,30.0,66.0,85.0
2875,602.0,605.0,545.0,29.0,65.0,85.0
2876,605.0,605.0,544.0,30.0,64.0,84.0
2877,605.0,604.0,542.0,29.0,64.0,83.0
2878,604.0,605.0,543.0,29.0,62.0,83.0
2879,605.0,606.0,543.0,29.0,63.0,82.0
2880,606.0,604.0,542.0,28.0,61.0,81.0
2881,604.0,603.0,542.0,29.0,61.0,81.0
2882,603.0,604.0,543.0,28.0,61.0,80.0
2883,604.0,604.0,543.0,28.0,60.0,79.0
2884,604.0,604.0,542.0,27.0,60.0,78.0
2885,604.0,604.0,541.0,27.0,59.0,78.0
2886,604.0,605.0,542.0,27.0,64.0,125.0
2887,605.0,604.0,541.0,28.0,62.0,124.0
2888,604.0,603.0,541.0,28.0,63.0,123.0
2889,603.0,603.0,541.0,28.0,62.0,121.0
2890,603.0,602.0,541.0,27.0,61.0,119.0
2891,602.0,603.0,542.0,38.0,60.0,118.0
2892,603.0,603.0,541.0,38.0,61.0,117.0
2893,603.0,603.0,542.0,37.0,60.0,116.0
2894,603.0,604.0,542.0,37.0,95.0,123.0
2895,604.0,603.0,542.0,37.0,92.0,121.0
2896,603.0,603.0,542.0,36.0,92.0,120.0
2897,603.0,604.0,542.0,35.0,91.0,118.0
2898,604.0,604.0,542.0,35.0,90.0,117.0
2899,604.0,603.0,542.0,34.0,90.0,124.0
2900,603.0,604.0,541.0,34.0,93.0,122.0
2901,604.0,604.0,542.0,33.0,93.0,121.0
2902,604.0,603.0,542.0,33.0,92.0,119.0
2903,603.0,604.0,542.0,34.0,90.0,118.0
2904,604.0,603.0,542.0,33.0,88.0,116.0
2905,603.0,602.0,541.0,33.0,88.0,115.0
2906,602.0,602.0,542.0,33.0,87.0,114.0
2907,602.0,602.0,541.0,33.0,86.0,113.0
2908,602.0,602.0,542.0,32.0,85.0,111.0
2909,602.0,600.0,542.0,32.0,85.0,110.0
2910,600.0,602.0,543.0,32.0,84.0,109.0
2911,602.0,603.0,544.0,31.0,84.0,108.0
2912,603.0,601.0,542.0,31.0,82.0,107.0
2913,601.0,601.0,543.0,31.0,81.0,106.0
2914,601.0,603.0,544.0,31.0,80.0,104.0
2915,603.0,603.0,543.0,29.0,79.0,104.0
2916,603.0,602.0,543.0,30.0,79.0,103.0
2917,602.0,603.0,543.0,30.0,78.0,102.0
2918,603.0,604.0,543.0,29.0,78.0,102.0
2919,604.0,602.0,542.0,32.0,77.0,99.0
2920,602.0,601.0,541.0,33.0,76.0,98.0
2921,601.0,599.0,541.0,32.0,75.0,98.0
2922,599.0,604.0,543.0,33.0,74.0,97.0
2923,604.0,607.0,545.0,32.0,74.0,96.0
2924,607.0,606.0,543.0,32.0,73.0,103.0
2925,606.0,605.0,542.0,32.0,73.0,102.0
2926,605.0,606.0,543.0,31.0,71.0,101.0
2927,606.0,606.0,543.0,30.0,71.0,100.0
2928,606.0,604.0,541.0,31.0,70.0,99.0
2929,604.0,604.0,541.0,31.0,70.0,98.0
2930,604.0,603.0,541.0,30.0,69.0,98.0
2931,603.0,604.0,542.0,30.0,116.0,140.0
2932,604.0,604.0,541.0,30.0,114.0,138.0
2933,604.0,602.0,540.0,29.0,113.0,135.0
2934,602.0,602.0,540.0,29.0,111.0,135.0
2935,602.0,606.0,543.0,29.0,110.0,132.0
2936,606.0,603.0,541.0,29.0,109.0,131.0
2937,603.0,606.0,541.0,29.0,107.0,130.0
2938,606.0,606.0,543.0,28.0,107.0,127.0
2939,606.0,606.0,541.0,27.0,106.0,126.0
2940,606.0,606.0,542.0,27.0,104.0,125.0
2941,606.0,604.0,542.0,27.0,102.0,122.0
2942,604.0,604.0,541.0,27.0,102.0,122.0
2943,604.0,603.0,542.0,27.0,101.0,122.0
2944,603.0,605.0,543.0,27.0,100.0,119.0
2945,605.0,603.0,542.0,27.0,99.0,118.0
2946,603.0,602.0,543.0,27.0,98.0,117.0
2947,602.0,605.0,545.0,26.0,97.0,116.0
2948,605.0,604.0,544.0,26.0,95.0,115.0
2949,604.0,604.0,543.0,26.0,94.0,113.0
2950,604.0,604.0,543.0,26.0,94.0,111.0
2951,604.0,604.0,544.0,26.0,93.0,111.0
2952,604.0,604.0,544.0,25.0,92.0,110.0
2953,604.0,603.0,544.0,25.0,91.0,109.0
2954,603.0,603.0,545.0,25.0,90.0,108.0
2955,603.0,604.0,546.0,25.0,90.0,107.0
2956,604.0,603.0,545.0,24.0,89.0,105.0
2957,603.0,603.0,544.0,24.0,88.0,104.0
2958,603.0,603.0,544.0,24.0,87.0,103.0
2959,603.0,603.0,544.0,23.0,86.0,103.0
2960,603.0,602.0,544.0,23.0,85.0,102.0
2961,602.0,603.0,543.0,23.0,85.0,101.0
2962,603.0,602.0,544.0,23.0,84.0,100.0
2963,602.0,602.0,544.0,23.0,83.0,98.0
2964,602.0,602.0,543.0,23.0,83.0,97.0
2965,602.0,603.0,543.0,23.0,82.0,97.0
2966,603.0,604.0,543.0,103.0,81.0,94.0
2967,604.0,603.0,542.0,101.0,80.0,94.0
2968,603.0,603.0,542.0,100.0,79.0,94.0
2969,603.0,603.0,542.0,99.0,78.0,93.0
2970,603.0,603.0,542.0,98.0,78.0,92.0
2971,603.0,603.0,541.0,96.0,77.0,91.0
2972,603.0,603.0,542.0,96.0,76.0,90.0
2973,603.0,603.0,542.0,94.0,75.0,90.0
2974,603.0,603.0,542.0,94.0,74.0,89.0
2975,603.0,604.0,541.0,93.0,74.0,87.0
2976,604.0,604.0,541.0,91.0,73.0,87.0
2977,604.0,603.0,541.0,90.0,73.0,86.0
2978,603.0,603.0,541.0,90.0,72.0,85.0
2979,603.0,603.0,541.0,89.0,71.0,85.0
2980,603.0,603.0,541.0,88.0,70.0,84.0
2981,603.0,603.0,541.0,87.0,69.0,83.0
2982,603.0,603.0,541.0,86.0,69.0,83.0
2983,603.0,604.0,541.0,85.0,111.0,135.0
2984,604.0,604.0,540.0,84.0,111.0,133.0
2985,604.0,604.0,540.0,84.0,107.0,131.0
2986,604.0,603.0,541.0,83.0,107.0,129.0
2987,603.0,603.0,541.0,82.0,105.0,128.0
2988,603.0,603.0,541.0,82.0,105.0,126.0
2989,603.0,603.0,542.0,81.0,102.0,125.0
2990,603.0,603.0,542.0,79.0,101.0,123.0
2991,603.0,603.0,542.0,79.0,101.0,122.0
2992,603.0,603.0,542.0,77.0,101.0,121.0
2993,603.0,603.0,543.0,78.0,98.0,119.0
2994,603.0,603.0,543.0,76.0,97.0,118.0
2995,603.0,603.0,543.0,76.0,96.0,117.0
2996,603.0,603.0,542.0,75.0,95.0,115.0
2997,603.0,602.0,543.0,74.0,95.0,114.0
2998,602.0,601.0,542.0,73.0,93.0,113.0
2999,601.0,601.0,541.0,73.0,93.0,111.0
3000,601.0,601.0,542.0,72.0,91.0,111.0
3001,601.0,601.0,542.0,71.0,90.0,110.0
3002,601.0,601.0,542.0,70.0,90.0,108.0
3003,601.0,602.0,542.0,70.0,89.0,107.0
3004,602.0,602.0,543.0,70.0,87.0,107.0
3005,602.0,602.0,543.0,69.0,87.0,105.0
3006,602.0,602.0,543.0,68.0,86.0,105.0
3007,602.0,602.0,543.0,69.0,85.0,103.0
3008,602.0,602.0,543.0,67.0,84.0,102.0
3009,602.0,603.0,543.0,67.0,84.0,101.0
3010,603.0,603.0,543.0,66.0,83.0,100.0
3011,603.0,604.0,542.0,65.0,82.0,99.0
3012,604.0,604.0,542.0,64.0,82.0,98.0
3013,604.0,604.0,541.0,64.0,80.0,96.0
3014,604.0,604.0,541.0,63.0,79.0,98.0
3015,604.0,604.0,542.0,63.0,79.0,95.0
3016,604.0,605.0,542.0,62.0,78.0,94.0
3017,605.0,606.0,542.0,62.0,78.0,94.0
3018,606.0,606.0,542.0,61.0,77.0,93.0
3019,606.0,606.0,541.0,60.0,76.0,92.0
3020,606.0,607.0,541.0,61.0,75.0,91.0
3021,607.0,606.0,541.0,59.0,74.0,90.0
3022,606.0,606.0,541.0,59.0,74.0,89.0
3023,606.0,605.0,541.0,59.0,73.0,88.0
3024,605.0,605.0,541.0,58.0,73.0,88.0
3025,605.0,606.0,542.0,58.0,155.0,209.0
3026,606.0,605.0,541.0,57.0,152.0,205.0
3027,605.0,606.0,542.0,56.0,151.0,203.0
3028,606.0,606.0,542.0,56.0,149.0,199.0
3029,606.0,606.0,542.0,55.0,147.0,197.0
3030,606.0,605.0,543.0,54.0,146.0,195.0
3031,605.0,605.0,543.0,55.0,144.0,192.0
3032,605.0,605.0,543.0,55.0,142.0,191.0
3033,605.0,605.0,542.0,53.0,141.0,191.0
3034,605.0,604.0,543.0,52.0,138.0,186.0
3035,604.0,604.0,543.0,52.0,138.0,184.0
3036,604.0,604.0,542.0,52.0,136.0,181.0
3037,604.0,603.0,543.0,52.0,134.0,180.0
3038,603.0,603.0,542.0,51.0,133.0,177.0
3039,603.0,602.0,543.0,52.0,131.0,182.0
3040,602.0,602.0,543.0,52.0,131.0,180.0
3041,602.0,603.0,543.0,50.0,130.0,179.0
3042,603.0,602.0,543.0,50.0,129.0,176.0
3043,602.0,602.0,543.0,50.0,127.0,174.0
3044,602.0,602.0,543.0,50.0,126.0,172.0
3045,602.0,603.0,542.0,49.0,125.0,171.0
3046,603.0,603.0,542.0,48.0,123.0,169.0
3047,603.0,603.0,542.0,48.0,122.0,167.0
3048,603.0,603.0,542.0,47.0,131.0,212.0
3049,603.0,602.0,541.0,47.0,129.0,209.0
3050,602.0,602.0,542.0,47.0,128.0,205.0
3051,602.0,602.0,541.0,46.0,126.0,203.0
3052,602.0,602.0,542.0,46.0,125.0,201.0
3053,602.0,602.0,542.0,45.0,123.0,198.0
3054,602.0,603.0,542.0,45.0,122.0,196.0
3055,603.0,603.0,542.0,45.0,121.0,193.0
3056,603.0,604.0,542.0,45.0,119.0,192.0
3057,604.0,604.0,542.0,43.0,118.0,189.0
3058,604.0,603.0,542.0,43.0,118.0,187.0
3059,603.0,604.0,542.0,43.0,116.0,185.0
3060,604.0,603.0,542.0,42.0,115.0,183.0
3061,603.0,604.0,542.0,42.0,113.0,180.0
3062,604.0,604.0,542.0,42.0,112.0,179.0
3063,604.0,604.0,542.0,52.0,111.0,177.0
3064,604.0,604.0,542.0,51.0,111.0,175.0
3065,604.0,604.0,542.0,51.0,109.0,175.0
3066,604.0,604.0,542.0,50.0,108.0,170.0
3067,604.0,604.0,542.0,49.0,107.0,170.0
3068,604.0,604.0,542.0,49.0,106.0,167.0
3069,604.0,604.0,542.0,49.0,104.0,166.0
3070,604.0,604.0,542.0,48.0,103.0,164.0
3071,604.0,603.0,542.0,48.0,103.0,162.0
3072,603.0,603.0,541.0,47.0,102.0,160.0
3073,603.0,604.0,542.0,47.0,100.0,158.0
3074,604.0,603.0,541.0,46.0,99.0,156.0
3075,603.0,603.0,541.0,46.0,99.0,155.0
3076,603.0,603.0,541.0,46.0,97.0,153.0
3077,603.0,604.0,541.0,45.0,97.0,152.0
3078,604.0,604.0,542.0,45.0,96.0,150.0
3079,604.0,604.0,542.0,44.0,95.0,149.0
3080,604.0,605.0,542.0,43.0,95.0,147.0
3081,605.0,604.0,541.0,43.0,93.0,145.0
3082,604.0,605.0,541.0,43.0,92.0,144.0
3083,605.0,604.0,541.0,43.0,94.0,142.0
3084,604.0,603.0,541.0,43.0,90.0,141.0
3085,603.0,603.0,542.0,42.0,89.0,140.0
3086,603.0,603.0,542.0,42.0,89.0,139.0
3087,603.0,603.0,542.0,41.0,118.0,218.0
3088,603.0,604.0,541.0,42.0,132.0,213.0
3089,604.0,604.0,542.0,40.0,130.0,210.0
3090,604.0,604.0,541.0,40.0,128.0,207.0
3091,604.0,604.0,541.0,39.0,126.0,205.0
3092,604.0,603.0,541.0,39.0,125.0,202.0
3093,603.0,602.0,542.0,39.0,123.0,200.0
3094,602.0,603.0,542.0,39.0,122.0,198.0
3095,603.0,603.0,542.0,38.0,120.0,195.0
3096,603.0,603.0,542.0,38.0,119.0,193.0
3097,603.0,603.0,542.0,37.0,118.0,190.0
3098,603.0,603.0,541.0,38.0,117.0,188.0
3099,603.0,603.0,541.0,37.0,115.0,187.0
3100,603.0,603.0,541.0,37.0,114.0,184.0
3101,603.0,604.0,540.0,37.0,113.0,182.0
3102,604.0,603.0,541.0,37.0,112.0,180.0
3103,603.0,603.0,541.0,36.0,111.0,179.0
3104,603.0,603.0,540.0,35.0,110.0,178.0
3105,603.0,603.0,540.0,35.0,109.0,175.0
3106,603.0,604.0,541.0,35.0,108.0,174.0
3107,604.0,604.0,541.0,34.0,107.0,172.0
3108,604.0,604.0,541.0,34.0,105.0,169.0
3109,604.0,604.0,542.0,34.0,105.0,167.0
3110,604.0,604.0,542.0,34.0,103.0,166.0
3111,604.0,604.0,541.0,34.0,102.0,165.0
3112,604.0,604.0,542.0,33.0,102.0,163.0
3113,604.0,604.0,542.0,48.0,100.0,160.0
3114,604.0,604.0,542.0,47.0,100.0,159.0
3115,604.0,604.0,543.0,46.0,99.0,158.0
3116,604.0,604.0,542.0,46.0,97.0,156.0
3117,604.0,604.0,542.0,46.0,97.0,154.0
3118,604.0,605.0,542.0,45.0,96.0,152.0
3119,605.0,604.0,542.0,44.0,94.0,150.0
3120,604.0,604.0,542.0,45.0,94.0,150.0
3121,604.0,605.0,542.0,44.0,93.0,148.0
3122,605.0,604.0,541.0,43.0,92.0,147.0
3123,604.0,604.0,541.0,43.0,91.0,145.0
3124,604.0,604.0,542.0,43.0,91.0,143.0
3125,604.0,604.0,541.0,43.0,89.0,142.0
3126,604.0,603.0,541.0,42.0,88.0,140.0
3127,603.0,603.0,541.0,41.0,87.0,139.0
